ts,equity
2023-09-24 00:00:00+00:00,10000.0
2023-09-25 00:00:00+00:00,10000.0
2023-09-26 00:00:00+00:00,10000.0
2023-09-27 00:00:00+00:00,10000.0
2023-09-28 00:00:00+00:00,10000.0
2023-09-29 00:00:00+00:00,10000.0
2023-09-30 00:00:00+00:00,10000.0
2023-10-01 00:00:00+00:00,10000.0
2023-10-02 00:00:00+00:00,10000.0
2023-10-03 00:00:00+00:00,10000.0
2023-10-04 00:00:00+00:00,10000.0
2023-10-05 00:00:00+00:00,10000.0
2023-10-06 00:00:00+00:00,10000.0
2023-10-07 00:00:00+00:00,10000.0
2023-10-08 00:00:00+00:00,10000.0
2023-10-09 00:00:00+00:00,10000.0
2023-10-10 00:00:00+00:00,10000.0
2023-10-11 00:00:00+00:00,10000.0
2023-10-12 00:00:00+00:00,10000.0
2023-10-13 00:00:00+00:00,10000.0
2023-10-14 00:00:00+00:00,10000.0
2023-10-15 00:00:00+00:00,10000.0
2023-10-16 00:00:00+00:00,10000.0
2023-10-17 00:00:00+00:00,10000.0
2023-10-18 00:00:00+00:00,10000.0
2023-10-19 00:00:00+00:00,9970.059880239522
2023-10-20 00:00:00+00:00,11226.63192827485
2023-10-21 00:00:00+00:00,12596.919404761187
2023-10-22 00:00:00+00:00,12430.012870935561
2023-10-23 00:00:00+00:00,14124.140699328487
2023-10-24 00:00:00+00:00,13092.353434012686
2023-10-25 00:00:00+00:00,14450.11829661392
2023-10-26 00:00:00+00:00,14642.890431628235
2023-10-27 00:00:00+00:00,14013.17080917184
2023-10-28 00:00:00+00:00,13947.922351790749
2023-10-29 00:00:00+00:00,14663.105484842243
2023-10-30 00:00:00+00:00,15924.38193876338
2023-10-31 00:00:00+00:00,17995.74261871359
2023-11-01 00:00:00+00:00,19640.307726771214
2023-11-02 00:00:00+00:00,19081.248724609097
2023-11-03 00:00:00+00:00,18606.385682128934
2023-11-04 00:00:00+00:00,20376.845229227136
2023-11-05 00:00:00+00:00,19613.47050095261
2023-11-06 00:00:00+00:00,20213.027836991394
2023-11-07 00:00:00+00:00,20668.34248241225
2023-11-08 00:00:00+00:00,20781.348509800977
2023-11-09 00:00:00+00:00,22070.947575079008
2023-11-10 00:00:00+00:00,28895.135900947927
2023-11-11 00:00:00+00:00,28687.713770879116
2023-11-12 00:00:00+00:00,28642.43211744112
2023-11-13 00:00:00+00:00,25823.68494868501
2023-11-14 00:00:00+00:00,28942.86552236215
2023-11-15 00:00:00+00:00,34108.27852445652
2023-11-16 00:00:00+00:00,29517.084992417324
2023-11-17 00:00:00+00:00,29933.80920647087
2023-11-18 00:00:00+00:00,29954.205925542083
2023-11-19 00:00:00+00:00,31469.389596521796
2023-11-20 00:00:00+00:00,28739.897904873316
2023-11-21 00:00:00+00:00,25777.026416012573
2023-11-22 00:00:00+00:00,29316.42231186783
2023-11-23 00:00:00+00:00,28676.623933415303
2023-11-24 00:00:00+00:00,28877.44526333331
2023-11-25 00:00:00+00:00,30044.723199440683
2023-11-26 00:00:00+00:00,29284.65380334628
2023-11-27 00:00:00+00:00,27768.387535380436
2023-11-28 00:00:00+00:00,29632.33183938402
2023-11-29 00:00:00+00:00,30301.1277055227
2023-11-30 00:00:00+00:00,30285.373741028285
2023-12-01 00:00:00+00:00,30545.76831982909
2023-12-02 00:00:00+00:00,32883.19385497368
2023-12-03 00:00:00+00:00,32464.510773328686
2023-12-04 00:00:00+00:00,31649.728717553426
2023-12-05 00:00:00+00:00,31273.400085194877
2023-12-06 00:00:00+00:00,31755.62840405751
2023-12-07 00:00:00+00:00,35281.34099738347
2023-12-08 00:00:00+00:00,39592.503597695024
2023-12-09 00:00:00+00:00,37995.340126087714
2023-12-10 00:00:00+00:00,39526.274473492034
2023-12-11 00:00:00+00:00,36740.49020461726
2023-12-12 00:00:00+00:00,35738.41393813715
2023-12-13 00:00:00+00:00,36939.78093803704
2023-12-14 00:00:00+00:00,39965.78665538873
2023-12-15 00:00:00+00:00,38050.33227170273
2023-12-16 00:00:00+00:00,38764.7977835174
2023-12-17 00:00:00+00:00,37041.767821462934
2023-12-18 00:00:00+00:00,39161.25022515264
2023-12-19 00:00:00+00:00,38296.56184574655
2023-12-20 00:00:00+00:00,43813.50156959547
2023-12-21 00:00:00+00:00,50781.69995514301
2023-12-22 00:00:00+00:00,53203.56887722302
2023-12-23 00:00:00+00:00,59178.66085074193
2023-12-24 00:00:00+00:00,61904.384414384025
2023-12-25 00:00:00+00:00,66964.59891086207
2023-12-26 00:00:00+00:00,61890.03198964765
2023-12-27 00:00:00+00:00,58521.756289084144
2023-12-28 00:00:00+00:00,55436.54805272113
2023-12-29 00:00:00+00:00,58043.20732034293
2023-12-30 00:00:00+00:00,55462.38899338622
2023-12-31 00:00:00+00:00,55337.57879536666
2024-01-01 00:00:00+00:00,60237.471117820816
2024-01-02 00:00:00+00:00,58310.38600918667
2024-01-03 00:00:00+00:00,49186.185283795116
2024-01-04 00:00:00+00:00,49186.185283795116
2024-01-05 00:00:00+00:00,49186.185283795116
2024-01-06 00:00:00+00:00,49186.185283795116
2024-01-07 00:00:00+00:00,49186.185283795116
2024-01-08 00:00:00+00:00,49186.185283795116
2024-01-09 00:00:00+00:00,49186.185283795116
2024-01-10 00:00:00+00:00,49186.185283795116
2024-01-11 00:00:00+00:00,49186.185283795116
2024-01-12 00:00:00+00:00,49186.185283795116
2024-01-13 00:00:00+00:00,49186.185283795116
2024-01-14 00:00:00+00:00,49186.185283795116
2024-01-15 00:00:00+00:00,49186.185283795116
2024-01-16 00:00:00+00:00,49186.185283795116
2024-01-17 00:00:00+00:00,49186.185283795116
2024-01-18 00:00:00+00:00,49186.185283795116
2024-01-19 00:00:00+00:00,49186.185283795116
2024-01-20 00:00:00+00:00,49186.185283795116
2024-01-21 00:00:00+00:00,49186.185283795116
2024-01-22 00:00:00+00:00,49186.185283795116
2024-01-23 00:00:00+00:00,49186.185283795116
2024-01-24 00:00:00+00:00,49186.185283795116
2024-01-25 00:00:00+00:00,49186.185283795116
2024-01-26 00:00:00+00:00,49186.185283795116
2024-01-27 00:00:00+00:00,49186.185283795116
2024-01-28 00:00:00+00:00,49186.185283795116
2024-01-29 00:00:00+00:00,49186.185283795116
2024-01-30 00:00:00+00:00,49186.185283795116
2024-01-31 00:00:00+00:00,49186.185283795116
2024-02-01 00:00:00+00:00,49186.185283795116
2024-02-02 00:00:00+00:00,49186.185283795116
2024-02-03 00:00:00+00:00,49186.185283795116
2024-02-04 00:00:00+00:00,49186.185283795116
2024-02-05 00:00:00+00:00,49186.185283795116
2024-02-06 00:00:00+00:00,49186.185283795116
2024-02-07 00:00:00+00:00,49186.185283795116
2024-02-08 00:00:00+00:00,49186.185283795116
2024-02-09 00:00:00+00:00,49186.185283795116
2024-02-10 00:00:00+00:00,49186.185283795116
2024-02-11 00:00:00+00:00,49186.185283795116
2024-02-12 00:00:00+00:00,49186.185283795116
2024-02-13 00:00:00+00:00,49186.185283795116
2024-02-14 00:00:00+00:00,49186.185283795116
2024-02-15 00:00:00+00:00,49186.185283795116
2024-02-16 00:00:00+00:00,49186.185283795116
2024-02-17 00:00:00+00:00,49186.185283795116
2024-02-18 00:00:00+00:00,49186.185283795116
2024-02-19 00:00:00+00:00,49186.185283795116
2024-02-20 00:00:00+00:00,49186.185283795116
2024-02-21 00:00:00+00:00,49186.185283795116
2024-02-22 00:00:00+00:00,49186.185283795116
2024-02-23 00:00:00+00:00,49186.185283795116
2024-02-24 00:00:00+00:00,49186.185283795116
2024-02-25 00:00:00+00:00,49186.185283795116
2024-02-26 00:00:00+00:00,49186.185283795116
2024-02-27 00:00:00+00:00,49186.185283795116
2024-02-28 00:00:00+00:00,49186.185283795116
2024-02-29 00:00:00+00:00,49186.185283795116
2024-03-01 00:00:00+00:00,49186.185283795116
2024-03-02 00:00:00+00:00,49186.185283795116
2024-03-03 00:00:00+00:00,49186.185283795116
2024-03-04 00:00:00+00:00,49186.185283795116
2024-03-05 00:00:00+00:00,49186.185283795116
2024-03-06 00:00:00+00:00,49186.185283795116
2024-03-07 00:00:00+00:00,49186.185283795116
2024-03-08 00:00:00+00:00,49186.185283795116
2024-03-09 00:00:00+00:00,49186.185283795116
2024-03-10 00:00:00+00:00,49186.185283795116
2024-03-11 00:00:00+00:00,49186.185283795116
2024-03-12 00:00:00+00:00,49186.185283795116
2024-03-13 00:00:00+00:00,49186.185283795116
2024-03-14 00:00:00+00:00,49186.185283795116
2024-03-15 00:00:00+00:00,49186.185283795116
2024-03-16 00:00:00+00:00,49186.185283795116
2024-03-17 00:00:00+00:00,49186.185283795116
2024-03-18 00:00:00+00:00,49186.185283795116
2024-03-19 00:00:00+00:00,49186.185283795116
2024-03-20 00:00:00+00:00,49186.185283795116
2024-03-21 00:00:00+00:00,49186.185283795116
2024-03-22 00:00:00+00:00,49186.185283795116
2024-03-23 00:00:00+00:00,49186.185283795116
2024-03-24 00:00:00+00:00,49186.185283795116
2024-03-25 00:00:00+00:00,49186.185283795116
2024-03-26 00:00:00+00:00,49186.185283795116
2024-03-27 00:00:00+00:00,49186.185283795116
2024-03-28 00:00:00+00:00,49186.185283795116
2024-03-29 00:00:00+00:00,49186.185283795116
2024-03-30 00:00:00+00:00,49186.185283795116
2024-03-31 00:00:00+00:00,49186.185283795116
2024-04-01 00:00:00+00:00,49186.185283795116
2024-04-02 00:00:00+00:00,49186.185283795116
2024-04-03 00:00:00+00:00,49186.185283795116
2024-04-04 00:00:00+00:00,49186.185283795116
2024-04-05 00:00:00+00:00,49186.185283795116
2024-04-06 00:00:00+00:00,49186.185283795116
2024-04-07 00:00:00+00:00,49186.185283795116
2024-04-08 00:00:00+00:00,49186.185283795116
2024-04-09 00:00:00+00:00,49186.185283795116
2024-04-10 00:00:00+00:00,49186.185283795116
2024-04-11 00:00:00+00:00,49186.185283795116
2024-04-12 00:00:00+00:00,49186.185283795116
2024-04-13 00:00:00+00:00,49186.185283795116
2024-04-14 00:00:00+00:00,49186.185283795116
2024-04-15 00:00:00+00:00,49186.185283795116
2024-04-16 00:00:00+00:00,49186.185283795116
2024-04-17 00:00:00+00:00,49186.185283795116
2024-04-18 00:00:00+00:00,49186.185283795116
2024-04-19 00:00:00+00:00,49186.185283795116
2024-04-20 00:00:00+00:00,49186.185283795116
2024-04-21 00:00:00+00:00,49186.185283795116
2024-04-22 00:00:00+00:00,49186.185283795116
2024-04-23 00:00:00+00:00,49186.185283795116
2024-04-24 00:00:00+00:00,49186.185283795116
2024-04-25 00:00:00+00:00,49186.185283795116
2024-04-26 00:00:00+00:00,49186.185283795116
2024-04-27 00:00:00+00:00,49186.185283795116
2024-04-28 00:00:00+00:00,49186.185283795116
2024-04-29 00:00:00+00:00,49186.185283795116
2024-04-30 00:00:00+00:00,49186.185283795116
2024-05-01 00:00:00+00:00,49186.185283795116
2024-05-02 00:00:00+00:00,49186.185283795116
2024-05-03 00:00:00+00:00,49186.185283795116
2024-05-04 00:00:00+00:00,49186.185283795116
2024-05-05 00:00:00+00:00,49186.185283795116
2024-05-06 00:00:00+00:00,49186.185283795116
2024-05-07 00:00:00+00:00,49186.185283795116
2024-05-08 00:00:00+00:00,49186.185283795116
2024-05-09 00:00:00+00:00,49186.185283795116
2024-05-10 00:00:00+00:00,49186.185283795116
2024-05-11 00:00:00+00:00,49186.185283795116
2024-05-12 00:00:00+00:00,49186.185283795116
2024-05-13 00:00:00+00:00,49186.185283795116
2024-05-14 00:00:00+00:00,49186.185283795116
2024-05-15 00:00:00+00:00,49186.185283795116
2024-05-16 00:00:00+00:00,49186.185283795116
2024-05-17 00:00:00+00:00,49186.185283795116
2024-05-18 00:00:00+00:00,49186.185283795116
2024-05-19 00:00:00+00:00,49186.185283795116
2024-05-20 00:00:00+00:00,49186.185283795116
2024-05-21 00:00:00+00:00,49186.185283795116
2024-05-22 00:00:00+00:00,49186.185283795116
2024-05-23 00:00:00+00:00,49186.185283795116
2024-05-24 00:00:00+00:00,49186.185283795116
2024-05-25 00:00:00+00:00,49186.185283795116
2024-05-26 00:00:00+00:00,49186.185283795116
2024-05-27 00:00:00+00:00,49186.185283795116
2024-05-28 00:00:00+00:00,49186.185283795116
2024-05-29 00:00:00+00:00,49186.185283795116
2024-05-30 00:00:00+00:00,49186.185283795116
2024-05-31 00:00:00+00:00,49186.185283795116
2024-06-01 00:00:00+00:00,49186.185283795116
2024-06-02 00:00:00+00:00,49186.185283795116
2024-06-03 00:00:00+00:00,49186.185283795116
2024-06-04 00:00:00+00:00,49186.185283795116
2024-06-05 00:00:00+00:00,49186.185283795116
2024-06-06 00:00:00+00:00,49186.185283795116
2024-06-07 00:00:00+00:00,49186.185283795116
2024-06-08 00:00:00+00:00,49186.185283795116
2024-06-09 00:00:00+00:00,49186.185283795116
2024-06-10 00:00:00+00:00,49186.185283795116
2024-06-11 00:00:00+00:00,49186.185283795116
2024-06-12 00:00:00+00:00,49186.185283795116
2024-06-13 00:00:00+00:00,49186.185283795116
2024-06-14 00:00:00+00:00,49186.185283795116
2024-06-15 00:00:00+00:00,49186.185283795116
2024-06-16 00:00:00+00:00,49186.185283795116
2024-06-17 00:00:00+00:00,49186.185283795116
2024-06-18 00:00:00+00:00,49186.185283795116
2024-06-19 00:00:00+00:00,49186.185283795116
2024-06-20 00:00:00+00:00,49186.185283795116
2024-06-21 00:00:00+00:00,49186.185283795116
2024-06-22 00:00:00+00:00,49186.185283795116
2024-06-23 00:00:00+00:00,49186.185283795116
2024-06-24 00:00:00+00:00,49186.185283795116
2024-06-25 00:00:00+00:00,49186.185283795116
2024-06-26 00:00:00+00:00,49186.185283795116
2024-06-27 00:00:00+00:00,49186.185283795116
2024-06-28 00:00:00+00:00,49186.185283795116
2024-06-29 00:00:00+00:00,49186.185283795116
2024-06-30 00:00:00+00:00,49186.185283795116
2024-07-01 00:00:00+00:00,49186.185283795116
2024-07-02 00:00:00+00:00,49186.185283795116
2024-07-03 00:00:00+00:00,49186.185283795116
2024-07-04 00:00:00+00:00,49186.185283795116
2024-07-05 00:00:00+00:00,49186.185283795116
2024-07-06 00:00:00+00:00,49186.185283795116
2024-07-07 00:00:00+00:00,49186.185283795116
2024-07-08 00:00:00+00:00,49186.185283795116
2024-07-09 00:00:00+00:00,49186.185283795116
2024-07-10 00:00:00+00:00,49186.185283795116
2024-07-11 00:00:00+00:00,49186.185283795116
2024-07-12 00:00:00+00:00,49186.185283795116
2024-07-13 00:00:00+00:00,49038.9212559993
2024-07-14 00:00:00+00:00,52006.811819178205
2024-07-15 00:00:00+00:00,58065.685717719294
2024-07-16 00:00:00+00:00,58686.3037794747
2024-07-17 00:00:00+00:00,56007.440568957965
2024-07-18 00:00:00+00:00,57915.13134073585
2024-07-19 00:00:00+00:00,63033.4097580527
2024-07-20 00:00:00+00:00,65328.23315151895
2024-07-21 00:00:00+00:00,70952.85213299582
2024-07-22 00:00:00+00:00,68026.78120404865
2024-07-23 00:00:00+00:00,64956.25200500873
2024-07-24 00:00:00+00:00,67541.0261884429
2024-07-25 00:00:00+00:00,64294.238379845876
2024-07-26 00:00:00+00:00,70085.1087518311
2024-07-27 00:00:00+00:00,70505.23436778101
2024-07-28 00:00:00+00:00,70987.48884566162
2024-07-29 00:00:00+00:00,69752.51291674741
2024-07-30 00:00:00+00:00,67957.6086464843
2024-07-31 00:00:00+00:00,64067.40381938939
2024-08-01 00:00:00+00:00,61791.59684139402
2024-08-02 00:00:00+00:00,55286.77638555326
2024-08-03 00:00:00+00:00,55286.77638555326
2024-08-04 00:00:00+00:00,55286.77638555326
2024-08-05 00:00:00+00:00,55286.77638555326
2024-08-06 00:00:00+00:00,55286.77638555326
2024-08-07 00:00:00+00:00,55286.77638555326
2024-08-08 00:00:00+00:00,55286.77638555326
2024-08-09 00:00:00+00:00,55286.77638555326
2024-08-10 00:00:00+00:00,55286.77638555326
2024-08-11 00:00:00+00:00,55286.77638555326
2024-08-12 00:00:00+00:00,55286.77638555326
2024-08-13 00:00:00+00:00,55286.77638555326
2024-08-14 00:00:00+00:00,55286.77638555326
2024-08-15 00:00:00+00:00,55286.77638555326
2024-08-16 00:00:00+00:00,55286.77638555326
2024-08-17 00:00:00+00:00,55286.77638555326
2024-08-18 00:00:00+00:00,55286.77638555326
2024-08-19 00:00:00+00:00,55286.77638555326
2024-08-20 00:00:00+00:00,55286.77638555326
2024-08-21 00:00:00+00:00,55286.77638555326
2024-08-22 00:00:00+00:00,55286.77638555326
2024-08-23 00:00:00+00:00,55121.24711493782
2024-08-24 00:00:00+00:00,59099.09658685165
2024-08-25 00:00:00+00:00,58130.55166424095
2024-08-26 00:00:00+00:00,56965.57320865012
2024-08-27 00:00:00+00:00,56965.57320865012
2024-08-28 00:00:00+00:00,56965.57320865012
2024-08-29 00:00:00+00:00,56965.57320865012
2024-08-30 00:00:00+00:00,56965.57320865012
2024-08-31 00:00:00+00:00,56965.57320865012
2024-09-01 00:00:00+00:00,56965.57320865012
2024-09-02 00:00:00+00:00,56965.57320865012
2024-09-03 00:00:00+00:00,56965.57320865012
2024-09-04 00:00:00+00:00,56965.57320865012
2024-09-05 00:00:00+00:00,56965.57320865012
2024-09-06 00:00:00+00:00,56965.57320865012
2024-09-07 00:00:00+00:00,56965.57320865012
2024-09-08 00:00:00+00:00,56965.57320865012
2024-09-09 00:00:00+00:00,56965.57320865012
2024-09-10 00:00:00+00:00,56965.57320865012
2024-09-11 00:00:00+00:00,56965.57320865012
2024-09-12 00:00:00+00:00,56965.57320865012
2024-09-13 00:00:00+00:00,56965.57320865012
2024-09-14 00:00:00+00:00,56965.57320865012
2024-09-15 00:00:00+00:00,56965.57320865012
2024-09-16 00:00:00+00:00,56965.57320865012
2024-09-17 00:00:00+00:00,56965.57320865012
2024-09-18 00:00:00+00:00,56965.57320865012
2024-09-19 00:00:00+00:00,56965.57320865012
2024-09-20 00:00:00+00:00,56965.57320865012
2024-09-21 00:00:00+00:00,56965.57320865012
2024-09-22 00:00:00+00:00,56965.57320865012
2024-09-23 00:00:00+00:00,56965.57320865012
2024-09-24 00:00:00+00:00,56795.01760024097
2024-09-25 00:00:00+00:00,53954.9508489931
2024-09-26 00:00:00+00:00,53793.40907998412
2024-09-27 00:00:00+00:00,54856.25137670859
2024-09-28 00:00:00+00:00,54371.825563595026
2024-09-29 00:00:00+00:00,55237.23250526106
2024-09-30 00:00:00+00:00,51957.207897016146
2024-10-01 00:00:00+00:00,51957.207897016146
2024-10-02 00:00:00+00:00,51957.207897016146
2024-10-03 00:00:00+00:00,51957.207897016146
2024-10-04 00:00:00+00:00,51957.207897016146
2024-10-05 00:00:00+00:00,51957.207897016146
2024-10-06 00:00:00+00:00,51957.207897016146
2024-10-07 00:00:00+00:00,51957.207897016146
2024-10-08 00:00:00+00:00,51957.207897016146
2024-10-09 00:00:00+00:00,51957.207897016146
2024-10-10 00:00:00+00:00,51957.207897016146
2024-10-11 00:00:00+00:00,51957.207897016146
2024-10-12 00:00:00+00:00,51957.207897016146
2024-10-13 00:00:00+00:00,51957.207897016146
2024-10-14 00:00:00+00:00,51801.64739433047
2024-10-15 00:00:00+00:00,50383.957587366116
2024-10-16 00:00:00+00:00,50126.20059523992
2024-10-17 00:00:00+00:00,48240.20365097008
2024-10-18 00:00:00+00:00,50410.67676138268
2024-10-19 00:00:00+00:00,52782.85443395161
2024-10-20 00:00:00+00:00,56516.231663640414
2024-10-21 00:00:00+00:00,55886.697357496705
2024-10-22 00:00:00+00:00,56564.90736924085
2024-10-23 00:00:00+00:00,58150.828787389815
2024-10-24 00:00:00+00:00,61256.06084312976
2024-10-25 00:00:00+00:00,55167.91536172077
2024-10-26 00:00:00+00:00,58096.31818605258
2024-10-27 00:00:00+00:00,60910.42502412755
2024-10-28 00:00:00+00:00,61705.64374866664
2024-10-29 00:00:00+00:00,62239.12253638655
2024-10-30 00:00:00+00:00,59969.790644186134
2024-10-31 00:00:00+00:00,56896.78969847719
2024-11-01 00:00:00+00:00,55596.02212136955
2024-11-02 00:00:00+00:00,55608.116895406645
2024-11-03 00:00:00+00:00,53789.59285848497
2024-11-04 00:00:00+00:00,51507.74053403599
2024-11-05 00:00:00+00:00,55764.39764556851
2024-11-06 00:00:00+00:00,65595.59360843372
2024-11-07 00:00:00+00:00,70386.21462291763
2024-11-08 00:00:00+00:00,72086.6718823473
2024-11-09 00:00:00+00:00,72079.40326165066
2024-11-10 00:00:00+00:00,77075.46584712836
2024-11-11 00:00:00+00:00,82997.79313184692
2024-11-12 00:00:00+00:00,77791.74118899235
2024-11-13 00:00:00+00:00,79485.19805996338
2024-11-14 00:00:00+00:00,76712.68073173995
2024-11-15 00:00:00+00:00,81065.98185106482
2024-11-16 00:00:00+00:00,79684.47637031441
2024-11-17 00:00:00+00:00,90392.27082691844
2024-11-18 00:00:00+00:00,91504.92923001417
2024-11-19 00:00:00+00:00,90406.72699055719
2024-11-20 00:00:00+00:00,89313.75088802978
2024-11-21 00:00:00+00:00,99589.59347247487
2024-11-22 00:00:00+00:00,99816.46592094375
2024-11-23 00:00:00+00:00,98789.96546938339
2024-11-24 00:00:00+00:00,97689.72277310319
2024-11-25 00:00:00+00:00,88502.52471214798
2024-11-26 00:00:00+00:00,86748.82436694407
2024-11-27 00:00:00+00:00,92278.55897545673
2024-11-28 00:00:00+00:00,90089.59270487605
2024-11-29 00:00:00+00:00,92889.75079092625
2024-11-30 00:00:00+00:00,90029.54043901437
2024-12-01 00:00:00+00:00,89602.69308715315
2024-12-02 00:00:00+00:00,84103.53762942222
2024-12-03 00:00:00+00:00,88119.12692895759
2024-12-04 00:00:00+00:00,85733.87681976112
2024-12-05 00:00:00+00:00,89003.92981581033
2024-12-06 00:00:00+00:00,89480.28932543991
2024-12-07 00:00:00+00:00,90074.931819907
2024-12-08 00:00:00+00:00,89490.11527364512
2024-12-09 00:00:00+00:00,73799.46600047624
2024-12-10 00:00:00+00:00,73799.46600047624
2024-12-11 00:00:00+00:00,73799.46600047624
2024-12-12 00:00:00+00:00,73799.46600047624
2024-12-13 00:00:00+00:00,73799.46600047624
2024-12-14 00:00:00+00:00,73799.46600047624
2024-12-15 00:00:00+00:00,73799.46600047624
2024-12-16 00:00:00+00:00,73799.46600047624
2024-12-17 00:00:00+00:00,73799.46600047624
2024-12-18 00:00:00+00:00,73799.46600047624
2024-12-19 00:00:00+00:00,73799.46600047624
2024-12-20 00:00:00+00:00,73799.46600047624
2024-12-21 00:00:00+00:00,73799.46600047624
2024-12-22 00:00:00+00:00,73799.46600047624
2024-12-23 00:00:00+00:00,73799.46600047624
2024-12-24 00:00:00+00:00,73799.46600047624
2024-12-25 00:00:00+00:00,73799.46600047624
2024-12-26 00:00:00+00:00,73799.46600047624
2024-12-27 00:00:00+00:00,73799.46600047624
2024-12-28 00:00:00+00:00,73799.46600047624
2024-12-29 00:00:00+00:00,73799.46600047624
2024-12-30 00:00:00+00:00,73799.46600047624
2024-12-31 00:00:00+00:00,73799.46600047624
2025-01-01 00:00:00+00:00,73799.46600047624
2025-01-02 00:00:00+00:00,73799.46600047624
2025-01-03 00:00:00+00:00,73799.46600047624
2025-01-04 00:00:00+00:00,73799.46600047624
2025-01-05 00:00:00+00:00,73799.46600047624
2025-01-06 00:00:00+00:00,73799.46600047624
2025-01-07 00:00:00+00:00,73799.46600047624
2025-01-08 00:00:00+00:00,73799.46600047624
2025-01-09 00:00:00+00:00,73799.46600047624
2025-01-10 00:00:00+00:00,73799.46600047624
2025-01-11 00:00:00+00:00,73799.46600047624
2025-01-12 00:00:00+00:00,73799.46600047624
2025-01-13 00:00:00+00:00,73799.46600047624
2025-01-14 00:00:00+00:00,73799.46600047624
2025-01-15 00:00:00+00:00,73799.46600047624
2025-01-16 00:00:00+00:00,73799.46600047624
2025-01-17 00:00:00+00:00,73799.46600047624
2025-01-18 00:00:00+00:00,73799.46600047624
2025-01-19 00:00:00+00:00,73799.46600047624
2025-01-20 00:00:00+00:00,73799.46600047624
2025-01-21 00:00:00+00:00,73799.46600047624
2025-01-22 00:00:00+00:00,73799.46600047624
2025-01-23 00:00:00+00:00,73799.46600047624
2025-01-24 00:00:00+00:00,73799.46600047624
2025-01-25 00:00:00+00:00,73799.46600047624
2025-01-26 00:00:00+00:00,73799.46600047624
2025-01-27 00:00:00+00:00,73799.46600047624
2025-01-28 00:00:00+00:00,73799.46600047624
2025-01-29 00:00:00+00:00,73799.46600047624
2025-01-30 00:00:00+00:00,73799.46600047624
2025-01-31 00:00:00+00:00,73799.46600047624
2025-02-01 00:00:00+00:00,73799.46600047624
2025-02-02 00:00:00+00:00,73799.46600047624
2025-02-03 00:00:00+00:00,73799.46600047624
2025-02-04 00:00:00+00:00,73799.46600047624
2025-02-05 00:00:00+00:00,73799.46600047624
2025-02-06 00:00:00+00:00,73799.46600047624
2025-02-07 00:00:00+00:00,73799.46600047624
2025-02-08 00:00:00+00:00,73799.46600047624
2025-02-09 00:00:00+00:00,73799.46600047624
2025-02-10 00:00:00+00:00,73799.46600047624
2025-02-11 00:00:00+00:00,73799.46600047624
2025-02-12 00:00:00+00:00,73799.46600047624
2025-02-13 00:00:00+00:00,73799.46600047624
2025-02-14 00:00:00+00:00,73799.46600047624
2025-02-15 00:00:00+00:00,73799.46600047624
2025-02-16 00:00:00+00:00,73799.46600047624
2025-02-17 00:00:00+00:00,73799.46600047624
2025-02-18 00:00:00+00:00,73799.46600047624
2025-02-19 00:00:00+00:00,73799.46600047624
2025-02-20 00:00:00+00:00,73799.46600047624
2025-02-21 00:00:00+00:00,73799.46600047624
2025-02-22 00:00:00+00:00,73799.46600047624
2025-02-23 00:00:00+00:00,73799.46600047624
2025-02-24 00:00:00+00:00,73799.46600047624
2025-02-25 00:00:00+00:00,73799.46600047624
2025-02-26 00:00:00+00:00,73799.46600047624
2025-02-27 00:00:00+00:00,73799.46600047624
2025-02-28 00:00:00+00:00,73799.46600047624
2025-03-01 00:00:00+00:00,73799.46600047624
2025-03-02 00:00:00+00:00,73799.46600047624
2025-03-03 00:00:00+00:00,73799.46600047624
2025-03-04 00:00:00+00:00,73799.46600047624
2025-03-05 00:00:00+00:00,73799.46600047624
2025-03-06 00:00:00+00:00,73799.46600047624
2025-03-07 00:00:00+00:00,73799.46600047624
2025-03-08 00:00:00+00:00,73799.46600047624
2025-03-09 00:00:00+00:00,73799.46600047624
2025-03-10 00:00:00+00:00,73799.46600047624
2025-03-11 00:00:00+00:00,73799.46600047624
2025-03-12 00:00:00+00:00,73799.46600047624
2025-03-13 00:00:00+00:00,73799.46600047624
2025-03-14 00:00:00+00:00,73799.46600047624
2025-03-15 00:00:00+00:00,73799.46600047624
2025-03-16 00:00:00+00:00,73799.46600047624
2025-03-17 00:00:00+00:00,73799.46600047624
2025-03-18 00:00:00+00:00,73799.46600047624
2025-03-19 00:00:00+00:00,73799.46600047624
2025-03-20 00:00:00+00:00,73799.46600047624
2025-03-21 00:00:00+00:00,73799.46600047624
2025-03-22 00:00:00+00:00,73799.46600047624
2025-03-23 00:00:00+00:00,73799.46600047624
2025-03-24 00:00:00+00:00,73799.46600047624
2025-03-25 00:00:00+00:00,73799.46600047624
2025-03-26 00:00:00+00:00,73799.46600047624
2025-03-27 00:00:00+00:00,73799.46600047624
2025-03-28 00:00:00+00:00,73799.46600047624
2025-03-29 00:00:00+00:00,73799.46600047624
2025-03-30 00:00:00+00:00,73799.46600047624
2025-03-31 00:00:00+00:00,73799.46600047624
2025-04-01 00:00:00+00:00,73799.46600047624
2025-04-02 00:00:00+00:00,73799.46600047624
2025-04-03 00:00:00+00:00,73799.46600047624
2025-04-04 00:00:00+00:00,73799.46600047624
2025-04-05 00:00:00+00:00,73799.46600047624
2025-04-06 00:00:00+00:00,73799.46600047624
2025-04-07 00:00:00+00:00,73799.46600047624
2025-04-08 00:00:00+00:00,73799.46600047624
2025-04-09 00:00:00+00:00,73799.46600047624
2025-04-10 00:00:00+00:00,73799.46600047624
2025-04-11 00:00:00+00:00,73799.46600047624
2025-04-12 00:00:00+00:00,73799.46600047624
2025-04-13 00:00:00+00:00,73799.46600047624
2025-04-14 00:00:00+00:00,73799.46600047624
2025-04-15 00:00:00+00:00,73799.46600047624
2025-04-16 00:00:00+00:00,73799.46600047624
2025-04-17 00:00:00+00:00,73799.46600047624
2025-04-18 00:00:00+00:00,73799.46600047624
2025-04-19 00:00:00+00:00,73799.46600047624
2025-04-20 00:00:00+00:00,73799.46600047624
2025-04-21 00:00:00+00:00,73799.46600047624
2025-04-22 00:00:00+00:00,73799.46600047624
2025-04-23 00:00:00+00:00,73799.46600047624
2025-04-24 00:00:00+00:00,73799.46600047624
2025-04-25 00:00:00+00:00,73799.46600047624
2025-04-26 00:00:00+00:00,73799.46600047624
2025-04-27 00:00:00+00:00,73799.46600047624
2025-04-28 00:00:00+00:00,73799.46600047624
2025-04-29 00:00:00+00:00,73799.46600047624
2025-04-30 00:00:00+00:00,73799.46600047624
2025-05-01 00:00:00+00:00,73799.46600047624
2025-05-02 00:00:00+00:00,73799.46600047624
2025-05-03 00:00:00+00:00,73799.46600047624
2025-05-04 00:00:00+00:00,73799.46600047624
2025-05-05 00:00:00+00:00,73799.46600047624
2025-05-06 00:00:00+00:00,73799.46600047624
2025-05-07 00:00:00+00:00,73799.46600047624
2025-05-08 00:00:00+00:00,73578.50951544486
2025-05-09 00:00:00+00:00,79135.80521176806
2025-05-10 00:00:00+00:00,82535.79990998024
2025-05-11 00:00:00+00:00,79346.65805951474
2025-05-12 00:00:00+00:00,80006.53223058463
2025-05-13 00:00:00+00:00,86374.64429943154
2025-05-14 00:00:00+00:00,81565.91764033046
2025-05-15 00:00:00+00:00,76510.01416030472
2025-05-16 00:00:00+00:00,75296.92219935793
2025-05-17 00:00:00+00:00,74285.62784150252
2025-05-18 00:00:00+00:00,79197.93483900471
2025-05-19 00:00:00+00:00,74841.08852177391
2025-05-20 00:00:00+00:00,75972.23267963706
2025-05-21 00:00:00+00:00,79258.82945115327
2025-05-22 00:00:00+00:00,83357.12908405763
2025-05-23 00:00:00+00:00,79516.22572306338
2025-05-24 00:00:00+00:00,80733.36022036694
2025-05-25 00:00:00+00:00,80613.70905271884
2025-05-26 00:00:00+00:00,80023.97601405837
2025-05-27 00:00:00+00:00,81200.65020321301
2025-05-28 00:00:00+00:00,78146.04131426748
2025-05-29 00:00:00+00:00,74420.68037377807
2025-05-30 00:00:00+00:00,67141.49153881268
2025-05-31 00:00:00+00:00,67141.49153881268
2025-06-01 00:00:00+00:00,67141.49153881268
2025-06-02 00:00:00+00:00,67141.49153881268
2025-06-03 00:00:00+00:00,67141.49153881268
2025-06-04 00:00:00+00:00,67141.49153881268
2025-06-05 00:00:00+00:00,67141.49153881268
2025-06-06 00:00:00+00:00,67141.49153881268
2025-06-07 00:00:00+00:00,67141.49153881268
2025-06-08 00:00:00+00:00,67141.49153881268
2025-06-09 00:00:00+00:00,67141.49153881268
2025-06-10 00:00:00+00:00,67141.49153881268
2025-06-11 00:00:00+00:00,67141.49153881268
2025-06-12 00:00:00+00:00,67141.49153881268
2025-06-13 00:00:00+00:00,67141.49153881268
2025-06-14 00:00:00+00:00,67141.49153881268
2025-06-15 00:00:00+00:00,67141.49153881268
2025-06-16 00:00:00+00:00,67141.49153881268
2025-06-17 00:00:00+00:00,67141.49153881268
2025-06-18 00:00:00+00:00,67141.49153881268
2025-06-19 00:00:00+00:00,67141.49153881268
2025-06-20 00:00:00+00:00,67141.49153881268
2025-06-21 00:00:00+00:00,67141.49153881268
2025-06-22 00:00:00+00:00,67141.49153881268
2025-06-23 00:00:00+00:00,67141.49153881268
2025-06-24 00:00:00+00:00,67141.49153881268
2025-06-25 00:00:00+00:00,67141.49153881268
2025-06-26 00:00:00+00:00,67141.49153881268
2025-06-27 00:00:00+00:00,67141.49153881268
2025-06-28 00:00:00+00:00,67141.49153881268
2025-06-29 00:00:00+00:00,67141.49153881268
2025-06-30 00:00:00+00:00,67141.49153881268
2025-07-01 00:00:00+00:00,67141.49153881268
2025-07-02 00:00:00+00:00,67141.49153881268
2025-07-03 00:00:00+00:00,67141.49153881268
2025-07-04 00:00:00+00:00,67141.49153881268
2025-07-05 00:00:00+00:00,67141.49153881268
2025-07-06 00:00:00+00:00,67141.49153881268
2025-07-07 00:00:00+00:00,67141.49153881268
2025-07-08 00:00:00+00:00,67141.49153881268
2025-07-09 00:00:00+00:00,67141.49153881268
2025-07-10 00:00:00+00:00,67141.49153881268
2025-07-11 00:00:00+00:00,67141.49153881268
2025-07-12 00:00:00+00:00,67141.49153881268
2025-07-13 00:00:00+00:00,67141.49153881268
2025-07-14 00:00:00+00:00,67141.49153881268
2025-07-15 00:00:00+00:00,67141.49153881268
2025-07-16 00:00:00+00:00,67141.49153881268
2025-07-17 00:00:00+00:00,67141.49153881268
2025-07-18 00:00:00+00:00,67141.49153881268
2025-07-19 00:00:00+00:00,67141.49153881268
2025-07-20 00:00:00+00:00,67141.49153881268
2025-07-21 00:00:00+00:00,66940.46910905576
2025-07-22 00:00:00+00:00,72036.73609775204
2025-07-23 00:00:00+00:00,63639.30711296233
2025-07-24 00:00:00+00:00,60260.14026273933
2025-07-25 00:00:00+00:00,57677.49380690244
2025-07-26 00:00:00+00:00,57677.49380690244
2025-07-27 00:00:00+00:00,57677.49380690244
2025-07-28 00:00:00+00:00,57677.49380690244
2025-07-29 00:00:00+00:00,57677.49380690244
2025-07-30 00:00:00+00:00,57677.49380690244
2025-07-31 00:00:00+00:00,57677.49380690244
2025-08-01 00:00:00+00:00,57677.49380690244
2025-08-02 00:00:00+00:00,57677.49380690244
2025-08-03 00:00:00+00:00,57677.49380690244
2025-08-04 00:00:00+00:00,57677.49380690244
2025-08-05 00:00:00+00:00,57677.49380690244
2025-08-06 00:00:00+00:00,57677.49380690244
2025-08-07 00:00:00+00:00,57677.49380690244
2025-08-08 00:00:00+00:00,57677.49380690244
2025-08-09 00:00:00+00:00,57677.49380690244
2025-08-10 00:00:00+00:00,57677.49380690244
2025-08-11 00:00:00+00:00,57677.49380690244
2025-08-12 00:00:00+00:00,57677.49380690244
2025-08-13 00:00:00+00:00,57677.49380690244
2025-08-14 00:00:00+00:00,57677.49380690244
2025-08-15 00:00:00+00:00,57677.49380690244
2025-08-16 00:00:00+00:00,57677.49380690244
2025-08-17 00:00:00+00:00,57677.49380690244
2025-08-18 00:00:00+00:00,57677.49380690244
2025-08-19 00:00:00+00:00,57677.49380690244
2025-08-20 00:00:00+00:00,57677.49380690244
2025-08-21 00:00:00+00:00,57677.49380690244
2025-08-22 00:00:00+00:00,57677.49380690244
2025-08-23 00:00:00+00:00,57677.49380690244
2025-08-24 00:00:00+00:00,57677.49380690244
2025-08-25 00:00:00+00:00,57677.49380690244
2025-08-26 00:00:00+00:00,57677.49380690244
2025-08-27 00:00:00+00:00,57677.49380690244
2025-08-28 00:00:00+00:00,57677.49380690244
2025-08-29 00:00:00+00:00,57677.49380690244
2025-08-30 00:00:00+00:00,57677.49380690244
2025-08-31 00:00:00+00:00,57677.49380690244
2025-09-01 00:00:00+00:00,57677.49380690244
2025-09-02 00:00:00+00:00,57677.49380690244
2025-09-03 00:00:00+00:00,57677.49380690244
2025-09-04 00:00:00+00:00,57677.49380690244
2025-09-05 00:00:00+00:00,57677.49380690244
2025-09-06 00:00:00+00:00,57677.49380690244
2025-09-07 00:00:00+00:00,57677.49380690244
2025-09-08 00:00:00+00:00,57677.49380690244
2025-09-09 00:00:00+00:00,57677.49380690244
2025-09-10 00:00:00+00:00,57677.49380690244
2025-09-11 00:00:00+00:00,57677.49380690244
2025-09-12 00:00:00+00:00,57677.49380690244
2025-09-13 00:00:00+00:00,57677.49380690244
2025-09-14 00:00:00+00:00,57677.49380690244
2025-09-15 00:00:00+00:00,57677.49380690244
2025-09-16 00:00:00+00:00,57677.49380690244
2025-09-17 00:00:00+00:00,57677.49380690244
2025-09-18 00:00:00+00:00,57677.49380690244
2025-09-19 00:00:00+00:00,57677.49380690244
2025-09-20 00:00:00+00:00,57677.49380690244
2025-09-21 00:00:00+00:00,57677.49380690244
2025-09-22 00:00:00+00:00,57677.49380690244
2025-09-23 00:00:00+00:00,57677.49380690244
2025-09-24 00:00:00+00:00,57677.49380690244
2025-09-25 00:00:00+00:00,57677.49380690244
2025-09-26 00:00:00+00:00,57677.49380690244
2025-09-27 00:00:00+00:00,57677.49380690244
2025-09-28 00:00:00+00:00,57677.49380690244
2025-09-29 00:00:00+00:00,57677.49380690244
2025-09-30 00:00:00+00:00,57677.49380690244
2025-10-01 00:00:00+00:00,57677.49380690244
2025-10-02 00:00:00+00:00,57677.49380690244
2025-10-03 00:00:00+00:00,57677.49380690244
2025-10-04 00:00:00+00:00,57677.49380690244
2025-10-05 00:00:00+00:00,57677.49380690244
2025-10-06 00:00:00+00:00,57677.49380690244
2025-10-07 00:00:00+00:00,57677.49380690244
2025-10-08 00:00:00+00:00,57677.49380690244
2025-10-09 00:00:00+00:00,57677.49380690244
2025-10-10 00:00:00+00:00,57677.49380690244
2025-10-11 00:00:00+00:00,57677.49380690244
2025-10-12 00:00:00+00:00,57677.49380690244
2025-10-13 00:00:00+00:00,57677.49380690244
2025-10-14 00:00:00+00:00,57677.49380690244
2025-10-15 00:00:00+00:00,57677.49380690244
2025-10-16 00:00:00+00:00,57677.49380690244
2025-10-17 00:00:00+00:00,57677.49380690244
2025-10-18 00:00:00+00:00,57677.49380690244
2025-10-19 00:00:00+00:00,57504.80669969614
2025-10-20 00:00:00+00:00,58331.22483067301
2025-10-21 00:00:00+00:00,56432.63059396087
2025-10-22 00:00:00+00:00,53711.905891288334
2025-10-23 00:00:00+00:00,53551.09180179347
2025-10-24 00:00:00+00:00,54470.08862309359
2025-10-25 00:00:00+00:00,54552.840225634
2025-10-26 00:00:00+00:00,57130.922779823246
2025-10-27 00:00:00+00:00,56549.18459949741
2025-10-28 00:00:00+00:00,54614.89601805604
2025-10-29 00:00:00+00:00,54479.13419577998
2025-10-30 00:00:00+00:00,50440.946021860604
2025-10-31 00:00:00+00:00,50289.92522538797
2025-11-01 00:00:00+00:00,49922.46904446409
2025-11-02 00:00:00+00:00,50450.290722420534
2025-11-03 00:00:00+00:00,41695.57001469057
2025-11-04 00:00:00+00:00,41695.57001469057
2025-11-05 00:00:00+00:00,41695.57001469057
2025-11-06 00:00:00+00:00,41695.57001469057
2025-11-07 00:00:00+00:00,41695.57001469057
2025-11-08 00:00:00+00:00,41695.57001469057
2025-11-09 00:00:00+00:00,41695.57001469057
2025-11-10 00:00:00+00:00,41695.57001469057
2025-11-11 00:00:00+00:00,41695.57001469057
2025-11-12 00:00:00+00:00,41695.57001469057
2025-11-13 00:00:00+00:00,41695.57001469057
2025-11-14 00:00:00+00:00,41695.57001469057
2025-11-15 00:00:00+00:00,41695.57001469057
2025-11-16 00:00:00+00:00,41695.57001469057
2025-11-17 00:00:00+00:00,41695.57001469057
2025-11-18 00:00:00+00:00,41695.57001469057
2025-11-19 00:00:00+00:00,41695.57001469057
2025-11-20 00:00:00+00:00,41695.57001469057
2025-11-21 00:00:00+00:00,41695.57001469057
2025-11-22 00:00:00+00:00,41695.57001469057
2025-11-23 00:00:00+00:00,41695.57001469057
2025-11-24 00:00:00+00:00,41695.57001469057
2025-11-25 00:00:00+00:00,41695.57001469057
2025-11-26 00:00:00+00:00,41695.57001469057
2025-11-27 00:00:00+00:00,41695.57001469057
2025-11-28 00:00:00+00:00,41695.57001469057
2025-11-29 00:00:00+00:00,41695.57001469057
2025-11-30 00:00:00+00:00,41695.57001469057
2025-12-01 00:00:00+00:00,41695.57001469057
2025-12-02 00:00:00+00:00,41695.57001469057
2025-12-03 00:00:00+00:00,41695.57001469057
2025-12-04 00:00:00+00:00,41695.57001469057
2025-12-05 00:00:00+00:00,41695.57001469057
2025-12-06 00:00:00+00:00,41695.57001469057
2025-12-07 00:00:00+00:00,41695.57001469057
2025-12-08 00:00:00+00:00,41695.57001469057
2025-12-09 00:00:00+00:00,41695.57001469057
2025-12-10 00:00:00+00:00,41695.57001469057
2025-12-11 00:00:00+00:00,41695.57001469057
2025-12-12 00:00:00+00:00,41695.57001469057
2025-12-13 00:00:00+00:00,41695.57001469057
2025-12-14 00:00:00+00:00,41695.57001469057
2025-12-15 00:00:00+00:00,41695.57001469057
2025-12-16 00:00:00+00:00,41695.57001469057
2025-12-17 00:00:00+00:00,41695.57001469057
2025-12-18 00:00:00+00:00,41695.57001469057
2025-12-19 00:00:00+00:00,41695.57001469057
2025-12-20 00:00:00+00:00,41695.57001469057
2025-12-21 00:00:00+00:00,41695.57001469057
2025-12-22 00:00:00+00:00,41695.57001469057
2025-12-23 00:00:00+00:00,41695.57001469057
2025-12-24 00:00:00+00:00,41695.57001469057
2025-12-25 00:00:00+00:00,41695.57001469057
2025-12-26 00:00:00+00:00,41695.57001469057
2025-12-27 00:00:00+00:00,41695.57001469057
2025-12-28 00:00:00+00:00,41695.57001469057
2025-12-29 00:00:00+00:00,41695.57001469057
2025-12-30 00:00:00+00:00,41695.57001469057
2025-12-31 00:00:00+00:00,41695.57001469057
2026-01-01 00:00:00+00:00,41695.57001469057
2026-01-02 00:00:00+00:00,41695.57001469057
2026-01-03 00:00:00+00:00,41695.57001469057
2026-01-04 00:00:00+00:00,41695.57001469057
2026-01-05 00:00:00+00:00,41695.57001469057
2026-01-06 00:00:00+00:00,41695.57001469057
2026-01-07 00:00:00+00:00,41695.57001469057
2026-01-08 00:00:00+00:00,41695.57001469057
2026-01-09 00:00:00+00:00,41695.57001469057
2026-01-10 00:00:00+00:00,41695.57001469057
2026-01-11 00:00:00+00:00,41695.57001469057
2026-01-12 00:00:00+00:00,41695.57001469057
2026-01-13 00:00:00+00:00,41695.57001469057
2026-01-14 00:00:00+00:00,41695.57001469057
2026-01-15 00:00:00+00:00,41695.57001469057
2026-01-16 00:00:00+00:00,41695.57001469057
2026-01-17 00:00:00+00:00,41695.57001469057
2026-01-18 00:00:00+00:00,41695.57001469057
2026-01-19 00:00:00+00:00,41695.57001469057
2026-01-20 00:00:00+00:00,41695.57001469057
2026-01-21 00:00:00+00:00,41695.57001469057
2026-01-22 00:00:00+00:00,41695.57001469057
2026-01-23 00:00:00+00:00,41695.57001469057
2026-01-24 00:00:00+00:00,41695.57001469057
2026-01-25 00:00:00+00:00,41695.57001469057
2026-01-26 00:00:00+00:00,41695.57001469057
2026-01-27 00:00:00+00:00,41695.57001469057
2026-01-28 00:00:00+00:00,41695.57001469057
2026-01-29 00:00:00+00:00,41695.57001469057
2026-01-30 00:00:00+00:00,41695.57001469057
2026-01-31 00:00:00+00:00,41695.57001469057
2026-02-01 00:00:00+00:00,41695.57001469057
2026-02-02 00:00:00+00:00,41695.57001469057
2026-02-03 00:00:00+00:00,41695.57001469057
2026-02-04 00:00:00+00:00,41695.57001469057
2026-02-05 00:00:00+00:00,41695.57001469057
2026-02-06 00:00:00+00:00,41695.57001469057
2026-02-07 00:00:00+00:00,41695.57001469057
2026-02-08 00:00:00+00:00,41695.57001469057
2026-02-09 00:00:00+00:00,41695.57001469057
2026-02-10 00:00:00+00:00,41695.57001469057
2026-02-11 00:00:00+00:00,41695.57001469057
2026-02-12 00:00:00+00:00,41695.57001469057
2026-02-13 00:00:00+00:00,41695.57001469057
2026-02-14 00:00:00+00:00,41695.57001469057
2026-02-15 00:00:00+00:00,41695.57001469057
2026-02-16 00:00:00+00:00,41695.57001469057
2026-02-17 00:00:00+00:00,41695.57001469057
2026-02-18 00:00:00+00:00,41695.57001469057
2026-02-19 00:00:00+00:00,41695.57001469057
2026-02-20 00:00:00+00:00,41695.57001469057
2026-02-21 00:00:00+00:00,41695.57001469057
2026-02-22 00:00:00+00:00,41695.57001469057
2026-02-23 00:00:00+00:00,41695.57001469057
2026-02-24 00:00:00+00:00,41695.57001469057
2026-02-25 00:00:00+00:00,41695.57001469057
2026-02-26 00:00:00+00:00,41695.57001469057
2026-02-27 00:00:00+00:00,41695.57001469057
2026-02-28 00:00:00+00:00,41695.57001469057
2026-03-01 00:00:00+00:00,41695.57001469057
2026-03-02 00:00:00+00:00,41695.57001469057
2026-03-03 00:00:00+00:00,41695.57001469057
2026-03-04 00:00:00+00:00,41695.57001469057
2026-03-05 00:00:00+00:00,41695.57001469057
2026-03-06 00:00:00+00:00,41695.57001469057
2026-03-07 00:00:00+00:00,41695.57001469057
2026-03-08 00:00:00+00:00,41695.57001469057
2026-03-09 00:00:00+00:00,41695.57001469057
2026-03-10 00:00:00+00:00,41695.57001469057
2026-03-11 00:00:00+00:00,41695.57001469057
2026-03-12 00:00:00+00:00,41695.57001469057
2026-03-13 00:00:00+00:00,41695.57001469057
2026-03-14 00:00:00+00:00,41695.57001469057
2026-03-15 00:00:00+00:00,41695.57001469057
2026-03-16 00:00:00+00:00,41695.57001469057
2026-03-17 00:00:00+00:00,41695.57001469057
2026-03-18 00:00:00+00:00,41695.57001469057
2026-03-19 00:00:00+00:00,41695.57001469057
2026-03-20 00:00:00+00:00,41695.57001469057
2026-03-21 00:00:00+00:00,41695.57001469057
2026-03-22 00:00:00+00:00,41695.57001469057
2026-03-23 00:00:00+00:00,41695.57001469057
2026-03-24 00:00:00+00:00,41695.57001469057
2026-03-25 00:00:00+00:00,41695.57001469057
2026-03-26 00:00:00+00:00,41695.57001469057
2026-03-27 00:00:00+00:00,41695.57001469057
2026-03-28 00:00:00+00:00,41695.57001469057
2026-03-29 00:00:00+00:00,41695.57001469057
2026-03-30 00:00:00+00:00,41695.57001469057
2026-03-31 00:00:00+00:00,41695.57001469057
2026-04-01 00:00:00+00:00,41695.57001469057
2026-04-02 00:00:00+00:00,41695.57001469057
2026-04-03 00:00:00+00:00,41695.57001469057
2026-04-04 00:00:00+00:00,41695.57001469057
2026-04-05 00:00:00+00:00,41695.57001469057
2026-04-06 00:00:00+00:00,41695.57001469057
2026-04-07 00:00:00+00:00,41695.57001469057
2026-04-08 00:00:00+00:00,41695.57001469057
2026-04-09 00:00:00+00:00,41695.57001469057
2026-04-10 00:00:00+00:00,41695.57001469057
2026-04-11 00:00:00+00:00,41695.57001469057
2026-04-12 00:00:00+00:00,41695.57001469057
2026-04-13 00:00:00+00:00,41695.57001469057
2026-04-14 00:00:00+00:00,41695.57001469057
2026-04-15 00:00:00+00:00,41695.57001469057
2026-04-16 00:00:00+00:00,41695.57001469057
2026-04-17 00:00:00+00:00,41695.57001469057
2026-04-18 00:00:00+00:00,41695.57001469057
2026-04-19 00:00:00+00:00,41695.57001469057
2026-04-20 00:00:00+00:00,41695.57001469057
2026-04-21 00:00:00+00:00,41695.57001469057
2026-04-22 00:00:00+00:00,41695.57001469057
2026-04-23 00:00:00+00:00,41695.57001469057
2026-04-24 00:00:00+00:00,41695.57001469057
2026-04-25 00:00:00+00:00,41695.57001469057
2026-04-26 00:00:00+00:00,41695.57001469057
2026-04-27 00:00:00+00:00,41695.57001469057
2026-04-28 00:00:00+00:00,41695.57001469057
2026-04-29 00:00:00+00:00,41695.57001469057
2026-04-30 00:00:00+00:00,41695.57001469057
2026-05-01 00:00:00+00:00,41695.57001469057
2026-05-02 00:00:00+00:00,41695.57001469057
2026-05-03 00:00:00+00:00,41695.57001469057
2026-05-04 00:00:00+00:00,41695.57001469057
2026-05-05 00:00:00+00:00,41695.57001469057
2026-05-06 00:00:00+00:00,41695.57001469057
2026-05-07 00:00:00+00:00,41695.57001469057
2026-05-08 00:00:00+00:00,41695.57001469057
2026-05-09 00:00:00+00:00,41695.57001469057
2026-05-10 00:00:00+00:00,41695.57001469057
2026-05-11 00:00:00+00:00,41695.57001469057
2026-05-12 00:00:00+00:00,41695.57001469057
2026-05-13 00:00:00+00:00,41695.57001469057
2026-05-14 00:00:00+00:00,41695.57001469057
2026-05-15 00:00:00+00:00,41695.57001469057
2026-05-16 00:00:00+00:00,41695.57001469057
2026-05-17 00:00:00+00:00,41695.57001469057
2026-05-18 00:00:00+00:00,41695.57001469057
2026-05-19 00:00:00+00:00,41695.57001469057
2026-05-20 00:00:00+00:00,41695.57001469057
2026-05-21 00:00:00+00:00,41695.57001469057
2026-05-22 00:00:00+00:00,41695.57001469057
2026-05-23 00:00:00+00:00,41695.57001469057
2026-05-24 00:00:00+00:00,41695.57001469057
2026-05-25 00:00:00+00:00,41695.57001469057
2026-05-26 00:00:00+00:00,41695.57001469057
2026-05-27 00:00:00+00:00,41695.57001469057
2026-05-28 00:00:00+00:00,41695.57001469057
2026-05-29 00:00:00+00:00,41695.57001469057
2026-05-30 00:00:00+00:00,41695.57001469057
2026-05-31 00:00:00+00:00,41695.57001469057
2026-06-01 00:00:00+00:00,41695.57001469057
2026-06-02 00:00:00+00:00,41695.57001469057
2026-06-03 00:00:00+00:00,41695.57001469057
2026-06-04 00:00:00+00:00,41695.57001469057
2026-06-05 00:00:00+00:00,41695.57001469057
2026-06-06 00:00:00+00:00,41695.57001469057
2026-06-07 00:00:00+00:00,41695.57001469057
2026-06-08 00:00:00+00:00,41695.57001469057
2026-06-09 00:00:00+00:00,41695.57001469057
2026-06-10 00:00:00+00:00,41695.57001469057
2026-06-11 00:00:00+00:00,41695.57001469057
2026-06-12 00:00:00+00:00,41695.57001469057
2026-06-13 00:00:00+00:00,41695.57001469057
2026-06-14 00:00:00+00:00,41695.57001469057
2026-06-15 00:00:00+00:00,41695.57001469057
2026-06-16 00:00:00+00:00,41695.57001469057
2026-06-17 00:00:00+00:00,41695.57001469057
2026-06-18 00:00:00+00:00,41695.57001469057
2026-06-19 00:00:00+00:00,41695.57001469057
2026-06-20 00:00:00+00:00,41695.57001469057
2026-06-21 00:00:00+00:00,41695.57001469057
2026-06-22 00:00:00+00:00,41695.57001469057
2026-06-23 00:00:00+00:00,41695.57001469057
2026-06-24 00:00:00+00:00,41695.57001469057
2026-06-25 00:00:00+00:00,41695.57001469057
2026-06-26 00:00:00+00:00,41695.57001469057
2026-06-27 00:00:00+00:00,41695.57001469057
2026-06-28 00:00:00+00:00,41695.57001469057
2026-06-29 00:00:00+00:00,41695.57001469057
2026-06-30 00:00:00+00:00,41695.57001469057
2026-07-01 00:00:00+00:00,41695.57001469057
2026-07-02 00:00:00+00:00,41695.57001469057
2026-07-03 00:00:00+00:00,41695.57001469057
2026-07-04 00:00:00+00:00,41695.57001469057
2026-07-05 00:00:00+00:00,41695.57001469057
2026-07-06 00:00:00+00:00,41695.57001469057
2026-07-07 00:00:00+00:00,41695.57001469057
2026-07-08 00:00:00+00:00,41695.57001469057
2026-07-09 00:00:00+00:00,41695.57001469057
2026-07-10 00:00:00+00:00,41695.57001469057
2026-07-11 00:00:00+00:00,41695.57001469057
2026-07-12 00:00:00+00:00,41695.57001469057
2026-07-13 00:00:00+00:00,41695.57001469057
2026-07-14 00:00:00+00:00,41695.57001469057
2026-07-15 00:00:00+00:00,41695.57001469057
2026-07-16 00:00:00+00:00,41695.57001469057
2026-07-17 00:00:00+00:00,41695.57001469057
2026-07-18 00:00:00+00:00,41695.57001469057
2026-07-19 00:00:00+00:00,41695.57001469057
2026-07-20 00:00:00+00:00,41695.57001469057
2026-07-21 00:00:00+00:00,41695.57001469057
2026-07-22 00:00:00+00:00,41695.57001469057
2026-07-23 00:00:00+00:00,41695.57001469057
2026-07-24 00:00:00+00:00,41695.57001469057
2026-07-25 00:00:00+00:00,41695.57001469057
2026-07-26 00:00:00+00:00,41695.57001469057
2026-07-27 00:00:00+00:00,41695.57001469057
2026-07-28 00:00:00+00:00,41695.57001469057
2026-07-29 00:00:00+00:00,41695.57001469057
2026-07-30 00:00:00+00:00,41695.57001469057
2026-07-31 00:00:00+00:00,41695.57001469057
2026-08-01 00:00:00+00:00,41695.57001469057
2026-08-02 00:00:00+00:00,41695.57001469057
2026-08-03 00:00:00+00:00,41695.57001469057
2026-08-04 00:00:00+00:00,41695.57001469057
2026-08-05 00:00:00+00:00,41695.57001469057
2026-08-06 00:00:00+00:00,41695.57001469057
2026-08-07 00:00:00+00:00,41695.57001469057
2026-08-08 00:00:00+00:00,41695.57001469057
2026-08-09 00:00:00+00:00,41695.57001469057
2026-08-10 00:00:00+00:00,41695.57001469057
2026-08-11 00:00:00+00:00,41695.57001469057
2026-08-12 00:00:00+00:00,41695.57001469057
2026-08-13 00:00:00+00:00,41695.57001469057
2026-08-14 00:00:00+00:00,41695.57001469057
2026-08-15 00:00:00+00:00,41695.57001469057
2026-08-16 00:00:00+00:00,41695.57001469057
2026-08-17 00:00:00+00:00,41695.57001469057
2026-08-18 00:00:00+00:00,41695.57001469057
2026-08-19 00:00:00+00:00,41570.73297871844
2026-08-20 00:00:00+00:00,43220.0205938105
2026-08-21 00:00:00+00:00,47631.5293037565
2026-08-22 00:00:00+00:00,47685.85745475629
2026-08-23 00:00:00+00:00,48843.77483569511
2026-08-24 00:00:00+00:00,51411.94337307264
2026-08-25 00:00:00+00:00,49659.979095339615
2026-08-26 00:00:00+00:00,53638.48685748451
2026-08-27 00:00:00+00:00,58785.28705014664
2026-08-28 00:00:00+00:00,55116.41552214567
2026-08-29 00:00:00+00:00,56162.635241417745
2026-08-30 00:00:00+00:00,53320.35002807494
2026-08-31 00:00:00+00:00,54257.4200625518
2026-09-01 00:00:00+00:00,52000.33888518762
2026-09-02 00:00:00+00:00,52294.59618744461
2026-09-03 00:00:00+00:00,54839.83793686108
2026-09-04 00:00:00+00:00,53349.99102531755
2026-09-05 00:00:00+00:00,54243.173008843056
2026-09-06 00:00:00+00:00,56685.54294420852
2026-09-07 00:00:00+00:00,54654.33201036756
2026-09-08 00:00:00+00:00,54319.28305953174
2026-09-09 00:00:00+00:00,52983.03231700043
2026-09-10 00:00:00+00:00,50843.18809901847
2026-09-11 00:00:00+00:00,53593.42489574356
2026-09-12 00:00:00+00:00,53061.31004950516
2026-09-13 00:00:00+00:00,51243.00930400842
2026-09-14 00:00:00+00:00,53583.834454911106
2026-09-15 00:00:00+00:00,49433.91370040637
2026-09-16 00:00:00+00:00,50715.466004647045
2026-09-17 00:00:00+00:00,52873.70249244209
2026-09-18 00:00:00+00:00,60951.36562229556
2026-09-19 00:00:00+00:00,59715.56481477795
2026-09-20 00:00:00+00:00,59773.730943508366
2026-09-21 00:00:00+00:00,65401.08197599633
2026-09-22 00:00:00+00:00,65136.09738524405
2026-09-23 00:00:00+00:00,62327.73009743833
