ts,equity
2023-09-24 00:00:00+00:00,10000.0
2023-09-25 00:00:00+00:00,10000.0
2023-09-26 00:00:00+00:00,10000.0
2023-09-27 00:00:00+00:00,10000.0
2023-09-28 00:00:00+00:00,10000.0
2023-09-29 00:00:00+00:00,10000.0
2023-09-30 00:00:00+00:00,10000.0
2023-10-01 00:00:00+00:00,10000.0
2023-10-02 00:00:00+00:00,10000.0
2023-10-03 00:00:00+00:00,10000.0
2023-10-04 00:00:00+00:00,10000.0
2023-10-05 00:00:00+00:00,10000.0
2023-10-06 00:00:00+00:00,10000.0
2023-10-07 00:00:00+00:00,10000.0
2023-10-08 00:00:00+00:00,10000.0
2023-10-09 00:00:00+00:00,10000.0
2023-10-10 00:00:00+00:00,10000.0
2023-10-11 00:00:00+00:00,10000.0
2023-10-12 00:00:00+00:00,10000.0
2023-10-13 00:00:00+00:00,10000.0
2023-10-14 00:00:00+00:00,10000.0
2023-10-15 00:00:00+00:00,10000.0
2023-10-16 00:00:00+00:00,9980.03992015968
2023-10-17 00:00:00+00:00,9971.705857595874
2023-10-18 00:00:00+00:00,9759.187262218778
2023-10-19 00:00:00+00:00,10388.408985786256
2023-10-20 00:00:00+00:00,11263.485554986064
2023-10-21 00:00:00+00:00,12217.73571854204
2023-10-22 00:00:00+00:00,12105.225873930636
2023-10-23 00:00:00+00:00,13284.49572670942
2023-10-24 00:00:00+00:00,12571.933377503865
2023-10-25 00:00:00+00:00,13517.849478496035
2023-10-26 00:00:00+00:00,13655.361510798864
2023-10-27 00:00:00+00:00,13221.990257480864
2023-10-28 00:00:00+00:00,13180.319944661827
2023-10-29 00:00:00+00:00,13680.363698490286
2023-10-30 00:00:00+00:00,14559.607298971992
2023-10-31 00:00:00+00:00,16001.40012251072
2023-11-01 00:00:00+00:00,17147.333725034274
2023-11-02 00:00:00+00:00,16763.96684709912
2023-11-03 00:00:00+00:00,16438.938407110625
2023-11-04 00:00:00+00:00,17672.379666554156
2023-11-05 00:00:00+00:00,17147.333725034274
2023-11-06 00:00:00+00:00,17568.20388450656
2023-11-07 00:00:00+00:00,17889.065293213156
2023-11-08 00:00:00+00:00,17972.405918851236
2023-11-09 00:00:00+00:00,18872.48467574246
2023-11-10 00:00:00+00:00,23614.566274549026
2023-11-11 00:00:00+00:00,23477.0542422462
2023-11-12 00:00:00+00:00,23452.052054554773
2023-11-13 00:00:00+00:00,21501.88141462378
2023-11-14 00:00:00+00:00,23672.904712495678
2023-11-15 00:00:00+00:00,27264.885677496786
2023-11-16 00:00:00+00:00,24085.440809404157
2023-11-17 00:00:00+00:00,24381.30003041933
2023-11-18 00:00:00+00:00,24402.13518682885
2023-11-19 00:00:00+00:00,25460.561132432424
2023-11-20 00:00:00+00:00,23572.895961729988
2023-11-21 00:00:00+00:00,21522.7165710333
2023-11-22 00:00:00+00:00,23985.43205863847
2023-11-23 00:00:00+00:00,23547.893774038563
2023-11-24 00:00:00+00:00,23693.7398689052
2023-11-25 00:00:00+00:00,24510.47800015835
2023-11-26 00:00:00+00:00,23989.599089920368
2023-11-27 00:00:00+00:00,22943.674238162508
2023-11-28 00:00:00+00:00,24243.787998116502
2023-11-29 00:00:00+00:00,24714.662532971637
2023-11-30 00:00:00+00:00,24710.495501689733
2023-12-01 00:00:00+00:00,24898.011909375407
2023-12-02 00:00:00+00:00,26527.3211405998
2023-12-03 00:00:00+00:00,26243.963013430344
2023-12-04 00:00:00+00:00,25685.58082165523
2023-12-05 00:00:00+00:00,25431.391913459098
2023-12-06 00:00:00+00:00,25773.08847857521
2023-12-07 00:00:00+00:00,28227.469903616566
2023-12-08 00:00:00+00:00,31227.73242658733
2023-12-09 00:00:00+00:00,30127.636168164718
2023-12-10 00:00:00+00:00,31198.563207614006
2023-12-11 00:00:00+00:00,29273.394755374433
2023-12-12 00:00:00+00:00,28585.834593860294
2023-12-13 00:00:00+00:00,29427.574912804874
2023-12-14 00:00:00+00:00,31536.092741448214
2023-12-15 00:00:00+00:00,30215.1438250847
2023-12-16 00:00:00+00:00,30719.354610195063
2023-12-17 00:00:00+00:00,29531.750694852468
2023-12-18 00:00:00+00:00,31011.046799928336
2023-12-19 00:00:00+00:00,30419.328357897983
2023-12-20 00:00:00+00:00,34257.16416853142
2023-12-21 00:00:00+00:00,39103.42154938557
2023-12-22 00:00:00+00:00,40795.236249838534
2023-12-23 00:00:00+00:00,44953.933469178555
2023-12-24 00:00:00+00:00,46858.266765008615
2023-12-25 00:00:00+00:00,50383.57522949925
2023-12-26 00:00:00+00:00,46874.934890136225
2023-12-27 00:00:00+00:00,44549.731434833884
2023-12-28 00:00:00+00:00,42420.37844978103
2023-12-29 00:00:00+00:00,44241.371119973
2023-12-30 00:00:00+00:00,42462.048762600076
2023-12-31 00:00:00+00:00,42387.04219952579
2024-01-01 00:00:00+00:00,45799.84081940503
2024-01-02 00:00:00+00:00,44474.72487175962
2024-01-03 00:00:00+00:00,38154.26468863645
2024-01-04 00:00:00+00:00,38154.26468863645
2024-01-05 00:00:00+00:00,38154.26468863645
2024-01-06 00:00:00+00:00,38154.26468863645
2024-01-07 00:00:00+00:00,38154.26468863645
2024-01-08 00:00:00+00:00,38154.26468863645
2024-01-09 00:00:00+00:00,38154.26468863645
2024-01-10 00:00:00+00:00,38154.26468863645
2024-01-11 00:00:00+00:00,38154.26468863645
2024-01-12 00:00:00+00:00,38154.26468863645
2024-01-13 00:00:00+00:00,38154.26468863645
2024-01-14 00:00:00+00:00,38154.26468863645
2024-01-15 00:00:00+00:00,38154.26468863645
2024-01-16 00:00:00+00:00,38154.26468863645
2024-01-17 00:00:00+00:00,38154.26468863645
2024-01-18 00:00:00+00:00,38154.26468863645
2024-01-19 00:00:00+00:00,38154.26468863645
2024-01-20 00:00:00+00:00,38154.26468863645
2024-01-21 00:00:00+00:00,38154.26468863645
2024-01-22 00:00:00+00:00,38154.26468863645
2024-01-23 00:00:00+00:00,38154.26468863645
2024-01-24 00:00:00+00:00,38154.26468863645
2024-01-25 00:00:00+00:00,38154.26468863645
2024-01-26 00:00:00+00:00,38154.26468863645
2024-01-27 00:00:00+00:00,38154.26468863645
2024-01-28 00:00:00+00:00,38154.26468863645
2024-01-29 00:00:00+00:00,38154.26468863645
2024-01-30 00:00:00+00:00,38154.26468863645
2024-01-31 00:00:00+00:00,38154.26468863645
2024-02-01 00:00:00+00:00,38154.26468863645
2024-02-02 00:00:00+00:00,38154.26468863645
2024-02-03 00:00:00+00:00,38154.26468863645
2024-02-04 00:00:00+00:00,38154.26468863645
2024-02-05 00:00:00+00:00,38154.26468863645
2024-02-06 00:00:00+00:00,38154.26468863645
2024-02-07 00:00:00+00:00,38154.26468863645
2024-02-08 00:00:00+00:00,38154.26468863645
2024-02-09 00:00:00+00:00,38078.10847169306
2024-02-10 00:00:00+00:00,38815.17303627512
2024-02-11 00:00:00+00:00,38263.26478743349
2024-02-12 00:00:00+00:00,39751.63671011608
2024-02-13 00:00:00+00:00,40050.73537400446
2024-02-14 00:00:00+00:00,41649.48894645537
2024-02-15 00:00:00+00:00,40413.92660872605
2024-02-16 00:00:00+00:00,39285.185222385415
2024-02-17 00:00:00+00:00,38783.12675085851
2024-02-18 00:00:00+00:00,39965.27861289349
2024-02-19 00:00:00+00:00,39712.46902794023
2024-02-20 00:00:00+00:00,38565.92414970148
2024-02-21 00:00:00+00:00,35701.264985272464
2024-02-22 00:00:00+00:00,35701.264985272464
2024-02-23 00:00:00+00:00,35701.264985272464
2024-02-24 00:00:00+00:00,35701.264985272464
2024-02-25 00:00:00+00:00,35701.264985272464
2024-02-26 00:00:00+00:00,35701.264985272464
2024-02-27 00:00:00+00:00,35701.264985272464
2024-02-28 00:00:00+00:00,35701.264985272464
2024-02-29 00:00:00+00:00,35701.264985272464
2024-03-01 00:00:00+00:00,35701.264985272464
2024-03-02 00:00:00+00:00,35701.264985272464
2024-03-03 00:00:00+00:00,35701.264985272464
2024-03-04 00:00:00+00:00,35701.264985272464
2024-03-05 00:00:00+00:00,35701.264985272464
2024-03-06 00:00:00+00:00,35701.264985272464
2024-03-07 00:00:00+00:00,35701.264985272464
2024-03-08 00:00:00+00:00,35701.264985272464
2024-03-09 00:00:00+00:00,35701.264985272464
2024-03-10 00:00:00+00:00,35701.264985272464
2024-03-11 00:00:00+00:00,35701.264985272464
2024-03-12 00:00:00+00:00,35701.264985272464
2024-03-13 00:00:00+00:00,35701.264985272464
2024-03-14 00:00:00+00:00,35701.264985272464
2024-03-15 00:00:00+00:00,35701.264985272464
2024-03-16 00:00:00+00:00,35701.264985272464
2024-03-17 00:00:00+00:00,35701.264985272464
2024-03-18 00:00:00+00:00,35701.264985272464
2024-03-19 00:00:00+00:00,35701.264985272464
2024-03-20 00:00:00+00:00,35701.264985272464
2024-03-21 00:00:00+00:00,35701.264985272464
2024-03-22 00:00:00+00:00,35701.264985272464
2024-03-23 00:00:00+00:00,35701.264985272464
2024-03-24 00:00:00+00:00,35701.264985272464
2024-03-25 00:00:00+00:00,35701.264985272464
2024-03-26 00:00:00+00:00,35701.264985272464
2024-03-27 00:00:00+00:00,35701.264985272464
2024-03-28 00:00:00+00:00,35701.264985272464
2024-03-29 00:00:00+00:00,35701.264985272464
2024-03-30 00:00:00+00:00,35701.264985272464
2024-03-31 00:00:00+00:00,35701.264985272464
2024-04-01 00:00:00+00:00,35701.264985272464
2024-04-02 00:00:00+00:00,35701.264985272464
2024-04-03 00:00:00+00:00,35701.264985272464
2024-04-04 00:00:00+00:00,35701.264985272464
2024-04-05 00:00:00+00:00,35701.264985272464
2024-04-06 00:00:00+00:00,35701.264985272464
2024-04-07 00:00:00+00:00,35701.264985272464
2024-04-08 00:00:00+00:00,35701.264985272464
2024-04-09 00:00:00+00:00,35701.264985272464
2024-04-10 00:00:00+00:00,35701.264985272464
2024-04-11 00:00:00+00:00,35701.264985272464
2024-04-12 00:00:00+00:00,35701.264985272464
2024-04-13 00:00:00+00:00,35701.264985272464
2024-04-14 00:00:00+00:00,35701.264985272464
2024-04-15 00:00:00+00:00,35701.264985272464
2024-04-16 00:00:00+00:00,35701.264985272464
2024-04-17 00:00:00+00:00,35701.264985272464
2024-04-18 00:00:00+00:00,35701.264985272464
2024-04-19 00:00:00+00:00,35701.264985272464
2024-04-20 00:00:00+00:00,35701.264985272464
2024-04-21 00:00:00+00:00,35701.264985272464
2024-04-22 00:00:00+00:00,35701.264985272464
2024-04-23 00:00:00+00:00,35701.264985272464
2024-04-24 00:00:00+00:00,35701.264985272464
2024-04-25 00:00:00+00:00,35701.264985272464
2024-04-26 00:00:00+00:00,35701.264985272464
2024-04-27 00:00:00+00:00,35701.264985272464
2024-04-28 00:00:00+00:00,35701.264985272464
2024-04-29 00:00:00+00:00,35701.264985272464
2024-04-30 00:00:00+00:00,35701.264985272464
2024-05-01 00:00:00+00:00,35701.264985272464
2024-05-02 00:00:00+00:00,35701.264985272464
2024-05-03 00:00:00+00:00,35701.264985272464
2024-05-04 00:00:00+00:00,35701.264985272464
2024-05-05 00:00:00+00:00,35701.264985272464
2024-05-06 00:00:00+00:00,35701.264985272464
2024-05-07 00:00:00+00:00,35701.264985272464
2024-05-08 00:00:00+00:00,35701.264985272464
2024-05-09 00:00:00+00:00,35701.264985272464
2024-05-10 00:00:00+00:00,35701.264985272464
2024-05-11 00:00:00+00:00,35701.264985272464
2024-05-12 00:00:00+00:00,35701.264985272464
2024-05-13 00:00:00+00:00,35701.264985272464
2024-05-14 00:00:00+00:00,35701.264985272464
2024-05-15 00:00:00+00:00,35701.264985272464
2024-05-16 00:00:00+00:00,35630.004975321826
2024-05-17 00:00:00+00:00,37881.3330176227
2024-05-18 00:00:00+00:00,38543.0937927181
2024-05-19 00:00:00+00:00,37990.88125404053
2024-05-20 00:00:00+00:00,41740.11375348299
2024-05-21 00:00:00+00:00,39828.608811906786
2024-05-22 00:00:00+00:00,39560.32741659784
2024-05-23 00:00:00+00:00,39383.70883135278
2024-05-24 00:00:00+00:00,37492.324994424736
2024-05-25 00:00:00+00:00,37637.64408355041
2024-05-26 00:00:00+00:00,36533.219006195264
2024-05-27 00:00:00+00:00,38040.06617651383
2024-05-28 00:00:00+00:00,37711.42146726037
2024-05-29 00:00:00+00:00,37630.937048667685
2024-05-30 00:00:00+00:00,37308.99937429696
2024-05-31 00:00:00+00:00,37034.0109441053
2024-06-01 00:00:00+00:00,37143.55918052311
2024-06-02 00:00:00+00:00,36475.09137054499
2024-06-03 00:00:00+00:00,36864.09939374297
2024-06-04 00:00:00+00:00,38404.481738475144
2024-06-05 00:00:00+00:00,38797.96111826159
2024-06-06 00:00:00+00:00,38040.06617651383
2024-06-07 00:00:00+00:00,34188.46516180419
2024-06-08 00:00:00+00:00,34188.46516180419
2024-06-09 00:00:00+00:00,34188.46516180419
2024-06-10 00:00:00+00:00,34188.46516180419
2024-06-11 00:00:00+00:00,34188.46516180419
2024-06-12 00:00:00+00:00,34188.46516180419
2024-06-13 00:00:00+00:00,34188.46516180419
2024-06-14 00:00:00+00:00,34188.46516180419
2024-06-15 00:00:00+00:00,34188.46516180419
2024-06-16 00:00:00+00:00,34188.46516180419
2024-06-17 00:00:00+00:00,34188.46516180419
2024-06-18 00:00:00+00:00,34188.46516180419
2024-06-19 00:00:00+00:00,34188.46516180419
2024-06-20 00:00:00+00:00,34188.46516180419
2024-06-21 00:00:00+00:00,34188.46516180419
2024-06-22 00:00:00+00:00,34188.46516180419
2024-06-23 00:00:00+00:00,34188.46516180419
2024-06-24 00:00:00+00:00,34188.46516180419
2024-06-25 00:00:00+00:00,34188.46516180419
2024-06-26 00:00:00+00:00,34188.46516180419
2024-06-27 00:00:00+00:00,34188.46516180419
2024-06-28 00:00:00+00:00,34188.46516180419
2024-06-29 00:00:00+00:00,34188.46516180419
2024-06-30 00:00:00+00:00,34188.46516180419
2024-07-01 00:00:00+00:00,34188.46516180419
2024-07-02 00:00:00+00:00,34188.46516180419
2024-07-03 00:00:00+00:00,34188.46516180419
2024-07-04 00:00:00+00:00,34188.46516180419
2024-07-05 00:00:00+00:00,34188.46516180419
2024-07-06 00:00:00+00:00,34188.46516180419
2024-07-07 00:00:00+00:00,34188.46516180419
2024-07-08 00:00:00+00:00,34188.46516180419
2024-07-09 00:00:00+00:00,34188.46516180419
2024-07-10 00:00:00+00:00,34188.46516180419
2024-07-11 00:00:00+00:00,34188.46516180419
2024-07-12 00:00:00+00:00,34188.46516180419
2024-07-13 00:00:00+00:00,34188.46516180419
2024-07-14 00:00:00+00:00,34188.46516180419
2024-07-15 00:00:00+00:00,34120.22471237943
2024-07-16 00:00:00+00:00,34385.6851129526
2024-07-17 00:00:00+00:00,33289.59055574728
2024-07-18 00:00:00+00:00,34085.97175746677
2024-07-19 00:00:00+00:00,36207.51415237001
2024-07-20 00:00:00+00:00,37164.45608024262
2024-07-21 00:00:00+00:00,39495.79782398595
2024-07-22 00:00:00+00:00,38299.08521172468
2024-07-23 00:00:00+00:00,37042.42992836625
2024-07-24 00:00:00+00:00,38119.25719843319
2024-07-25 00:00:00+00:00,36789.81438588534
2024-07-26 00:00:00+00:00,39189.662039454
2024-07-27 00:00:00+00:00,39373.77167210958
2024-07-28 00:00:00+00:00,39583.57102094966
2024-07-29 00:00:00+00:00,39084.76236503396
2024-07-30 00:00:00+00:00,38354.74626345776
2024-07-31 00:00:00+00:00,36759.843050336756
2024-08-01 00:00:00+00:00,35830.731648330686
2024-08-02 00:00:00+00:00,33156.01595895612
2024-08-03 00:00:00+00:00,33156.01595895612
2024-08-04 00:00:00+00:00,33156.01595895612
2024-08-05 00:00:00+00:00,33156.01595895612
2024-08-06 00:00:00+00:00,33156.01595895612
2024-08-07 00:00:00+00:00,33156.01595895612
2024-08-08 00:00:00+00:00,33156.01595895612
2024-08-09 00:00:00+00:00,33156.01595895612
2024-08-10 00:00:00+00:00,33156.01595895612
2024-08-11 00:00:00+00:00,33156.01595895612
2024-08-12 00:00:00+00:00,33156.01595895612
2024-08-13 00:00:00+00:00,33156.01595895612
2024-08-14 00:00:00+00:00,33156.01595895612
2024-08-15 00:00:00+00:00,33156.01595895612
2024-08-16 00:00:00+00:00,33156.01595895612
2024-08-17 00:00:00+00:00,33156.01595895612
2024-08-18 00:00:00+00:00,33156.01595895612
2024-08-19 00:00:00+00:00,33156.01595895612
2024-08-20 00:00:00+00:00,33156.01595895612
2024-08-21 00:00:00+00:00,33156.01595895612
2024-08-22 00:00:00+00:00,33156.01595895612
2024-08-23 00:00:00+00:00,33156.01595895612
2024-08-24 00:00:00+00:00,33156.01595895612
2024-08-25 00:00:00+00:00,33156.01595895612
2024-08-26 00:00:00+00:00,33156.01595895612
2024-08-27 00:00:00+00:00,33156.01595895612
2024-08-28 00:00:00+00:00,33156.01595895612
2024-08-29 00:00:00+00:00,33156.01595895612
2024-08-30 00:00:00+00:00,33156.01595895612
2024-08-31 00:00:00+00:00,33156.01595895612
2024-09-01 00:00:00+00:00,33156.01595895612
2024-09-02 00:00:00+00:00,33156.01595895612
2024-09-03 00:00:00+00:00,33156.01595895612
2024-09-04 00:00:00+00:00,33156.01595895612
2024-09-05 00:00:00+00:00,33156.01595895612
2024-09-06 00:00:00+00:00,33156.01595895612
2024-09-07 00:00:00+00:00,33156.01595895612
2024-09-08 00:00:00+00:00,33156.01595895612
2024-09-09 00:00:00+00:00,33156.01595895612
2024-09-10 00:00:00+00:00,33156.01595895612
2024-09-11 00:00:00+00:00,33156.01595895612
2024-09-12 00:00:00+00:00,33156.01595895612
2024-09-13 00:00:00+00:00,33156.01595895612
2024-09-14 00:00:00+00:00,33156.01595895612
2024-09-15 00:00:00+00:00,33156.01595895612
2024-09-16 00:00:00+00:00,33156.01595895612
2024-09-17 00:00:00+00:00,33156.01595895612
2024-09-18 00:00:00+00:00,33156.01595895612
2024-09-19 00:00:00+00:00,33156.01595895612
2024-09-20 00:00:00+00:00,33156.01595895612
2024-09-21 00:00:00+00:00,33156.01595895612
2024-09-22 00:00:00+00:00,33156.01595895612
2024-09-23 00:00:00+00:00,33156.01595895612
2024-09-24 00:00:00+00:00,33089.836286383346
2024-09-25 00:00:00+00:00,31996.599919542263
2024-09-26 00:00:00+00:00,31932.73445064098
2024-09-27 00:00:00+00:00,32361.78887045351
2024-09-28 00:00:00+00:00,32179.081485940038
2024-09-29 00:00:00+00:00,32530.126011241206
2024-09-30 00:00:00+00:00,31241.940411607113
2024-10-01 00:00:00+00:00,31241.940411607113
2024-10-02 00:00:00+00:00,31241.940411607113
2024-10-03 00:00:00+00:00,31241.940411607113
2024-10-04 00:00:00+00:00,31241.940411607113
2024-10-05 00:00:00+00:00,31241.940411607113
2024-10-06 00:00:00+00:00,31241.940411607113
2024-10-07 00:00:00+00:00,31241.940411607113
2024-10-08 00:00:00+00:00,31241.940411607113
2024-10-09 00:00:00+00:00,31241.940411607113
2024-10-10 00:00:00+00:00,31241.940411607113
2024-10-11 00:00:00+00:00,31241.940411607113
2024-10-12 00:00:00+00:00,31241.940411607113
2024-10-13 00:00:00+00:00,31241.940411607113
2024-10-14 00:00:00+00:00,31179.5812491089
2024-10-15 00:00:00+00:00,30619.65857041749
2024-10-16 00:00:00+00:00,30524.689352830257
2024-10-17 00:00:00+00:00,29776.806764330788
2024-10-18 00:00:00+00:00,30655.272027012707
2024-10-19 00:00:00+00:00,31614.856829717053
2024-10-20 00:00:00+00:00,33120.514633548
2024-10-21 00:00:00+00:00,32877.1560134807
2024-10-22 00:00:00+00:00,33158.10661550961
2024-10-23 00:00:00+00:00,33803.10588495625
2024-10-24 00:00:00+00:00,35057.4909672543
2024-10-25 00:00:00+00:00,32625.883291947823
2024-10-26 00:00:00+00:00,33809.04146105544
2024-10-27 00:00:00+00:00,34946.693546735856
2024-10-28 00:00:00+00:00,35275.12875755838
2024-10-29 00:00:00+00:00,35498.70212396166
2024-10-30 00:00:00+00:00,34598.47308224934
2024-10-31 00:00:00+00:00,33375.74440581369
2024-11-01 00:00:00+00:00,32863.306335915906
2024-11-02 00:00:00+00:00,32877.1560134807
2024-11-03 00:00:00+00:00,32156.972780110853
2024-11-04 00:00:00+00:00,31250.808162299323
2024-11-05 00:00:00+00:00,32966.189654968744
2024-11-06 00:00:00+00:00,36917.304811670976
2024-11-07 00:00:00+00:00,38848.34556927807
2024-11-08 00:00:00+00:00,39540.82944751833
2024-11-09 00:00:00+00:00,39548.74354898392
2024-11-10 00:00:00+00:00,41562.88237197986
2024-11-11 00:00:00+00:00,43948.98396385912
2024-11-12 00:00:00+00:00,41873.51085450478
2024-11-13 00:00:00+00:00,42564.01620737863
2024-11-14 00:00:00+00:00,41463.95610365982
2024-11-15 00:00:00+00:00,43220.886629023655
2024-11-16 00:00:00+00:00,42678.770678629866
2024-11-17 00:00:00+00:00,46984.04187591782
2024-11-18 00:00:00+00:00,47443.059760922784
2024-11-19 00:00:00+00:00,47015.698281780235
2024-11-20 00:00:00+00:00,46590.31532800408
2024-11-21 00:00:00+00:00,50723.45481841518
2024-11-22 00:00:00+00:00,50828.316662834404
2024-11-23 00:00:00+00:00,50430.63306418787
2024-11-24 00:00:00+00:00,50003.27158504532
2024-11-25 00:00:00+00:00,46333.10703037199
2024-11-26 00:00:00+00:00,45642.60167749813
2024-11-27 00:00:00+00:00,47872.39976543175
2024-11-28 00:00:00+00:00,47007.78418031464
2024-11-29 00:00:00+00:00,48143.45774062865
2024-11-30 00:00:00+00:00,47009.76270568103
2024-12-01 00:00:00+00:00,46851.48067636898
2024-12-02 00:00:00+00:00,44659.274570396985
2024-12-03 00:00:00+00:00,46281.66537084556
2024-12-04 00:00:00+00:00,45337.90877107243
2024-12-05 00:00:00+00:00,46661.542241194504
2024-12-06 00:00:00+00:00,46865.33035393378
2024-12-07 00:00:00+00:00,47116.60307546667
2024-12-08 00:00:00+00:00,46895.00823442979
2024-12-09 00:00:00+00:00,40616.870253289024
2024-12-10 00:00:00+00:00,40616.870253289024
2024-12-11 00:00:00+00:00,40616.870253289024
2024-12-12 00:00:00+00:00,40616.870253289024
2024-12-13 00:00:00+00:00,40616.870253289024
2024-12-14 00:00:00+00:00,40616.870253289024
2024-12-15 00:00:00+00:00,40616.870253289024
2024-12-16 00:00:00+00:00,40616.870253289024
2024-12-17 00:00:00+00:00,40616.870253289024
2024-12-18 00:00:00+00:00,40616.870253289024
2024-12-19 00:00:00+00:00,40616.870253289024
2024-12-20 00:00:00+00:00,40616.870253289024
2024-12-21 00:00:00+00:00,40616.870253289024
2024-12-22 00:00:00+00:00,40616.870253289024
2024-12-23 00:00:00+00:00,40616.870253289024
2024-12-24 00:00:00+00:00,40616.870253289024
2024-12-25 00:00:00+00:00,40616.870253289024
2024-12-26 00:00:00+00:00,40616.870253289024
2024-12-27 00:00:00+00:00,40616.870253289024
2024-12-28 00:00:00+00:00,40616.870253289024
2024-12-29 00:00:00+00:00,40616.870253289024
2024-12-30 00:00:00+00:00,40616.870253289024
2024-12-31 00:00:00+00:00,40616.870253289024
2025-01-01 00:00:00+00:00,40616.870253289024
2025-01-02 00:00:00+00:00,40616.870253289024
2025-01-03 00:00:00+00:00,40616.870253289024
2025-01-04 00:00:00+00:00,40616.870253289024
2025-01-05 00:00:00+00:00,40616.870253289024
2025-01-06 00:00:00+00:00,40616.870253289024
2025-01-07 00:00:00+00:00,40616.870253289024
2025-01-08 00:00:00+00:00,40616.870253289024
2025-01-09 00:00:00+00:00,40616.870253289024
2025-01-10 00:00:00+00:00,40616.870253289024
2025-01-11 00:00:00+00:00,40616.870253289024
2025-01-12 00:00:00+00:00,40616.870253289024
2025-01-13 00:00:00+00:00,40616.870253289024
2025-01-14 00:00:00+00:00,40616.870253289024
2025-01-15 00:00:00+00:00,40616.870253289024
2025-01-16 00:00:00+00:00,40616.870253289024
2025-01-17 00:00:00+00:00,40616.870253289024
2025-01-18 00:00:00+00:00,40535.79865597707
2025-01-19 00:00:00+00:00,39058.084119333245
2025-01-20 00:00:00+00:00,35514.17550956323
2025-01-21 00:00:00+00:00,35514.17550956323
2025-01-22 00:00:00+00:00,35514.17550956323
2025-01-23 00:00:00+00:00,35514.17550956323
2025-01-24 00:00:00+00:00,35514.17550956323
2025-01-25 00:00:00+00:00,35514.17550956323
2025-01-26 00:00:00+00:00,35514.17550956323
2025-01-27 00:00:00+00:00,35514.17550956323
2025-01-28 00:00:00+00:00,35514.17550956323
2025-01-29 00:00:00+00:00,35514.17550956323
2025-01-30 00:00:00+00:00,35514.17550956323
2025-01-31 00:00:00+00:00,35514.17550956323
2025-02-01 00:00:00+00:00,35514.17550956323
2025-02-02 00:00:00+00:00,35514.17550956323
2025-02-03 00:00:00+00:00,35514.17550956323
2025-02-04 00:00:00+00:00,35514.17550956323
2025-02-05 00:00:00+00:00,35514.17550956323
2025-02-06 00:00:00+00:00,35514.17550956323
2025-02-07 00:00:00+00:00,35514.17550956323
2025-02-08 00:00:00+00:00,35514.17550956323
2025-02-09 00:00:00+00:00,35514.17550956323
2025-02-10 00:00:00+00:00,35514.17550956323
2025-02-11 00:00:00+00:00,35514.17550956323
2025-02-12 00:00:00+00:00,35514.17550956323
2025-02-13 00:00:00+00:00,35514.17550956323
2025-02-14 00:00:00+00:00,35514.17550956323
2025-02-15 00:00:00+00:00,35514.17550956323
2025-02-16 00:00:00+00:00,35514.17550956323
2025-02-17 00:00:00+00:00,35514.17550956323
2025-02-18 00:00:00+00:00,35514.17550956323
2025-02-19 00:00:00+00:00,35514.17550956323
2025-02-20 00:00:00+00:00,35514.17550956323
2025-02-21 00:00:00+00:00,35514.17550956323
2025-02-22 00:00:00+00:00,35514.17550956323
2025-02-23 00:00:00+00:00,35514.17550956323
2025-02-24 00:00:00+00:00,35514.17550956323
2025-02-25 00:00:00+00:00,35514.17550956323
2025-02-26 00:00:00+00:00,35514.17550956323
2025-02-27 00:00:00+00:00,35514.17550956323
2025-02-28 00:00:00+00:00,35514.17550956323
2025-03-01 00:00:00+00:00,35514.17550956323
2025-03-02 00:00:00+00:00,35514.17550956323
2025-03-03 00:00:00+00:00,35514.17550956323
2025-03-04 00:00:00+00:00,35514.17550956323
2025-03-05 00:00:00+00:00,35514.17550956323
2025-03-06 00:00:00+00:00,35514.17550956323
2025-03-07 00:00:00+00:00,35514.17550956323
2025-03-08 00:00:00+00:00,35514.17550956323
2025-03-09 00:00:00+00:00,35514.17550956323
2025-03-10 00:00:00+00:00,35514.17550956323
2025-03-11 00:00:00+00:00,35514.17550956323
2025-03-12 00:00:00+00:00,35514.17550956323
2025-03-13 00:00:00+00:00,35514.17550956323
2025-03-14 00:00:00+00:00,35514.17550956323
2025-03-15 00:00:00+00:00,35514.17550956323
2025-03-16 00:00:00+00:00,35514.17550956323
2025-03-17 00:00:00+00:00,35514.17550956323
2025-03-18 00:00:00+00:00,35514.17550956323
2025-03-19 00:00:00+00:00,35514.17550956323
2025-03-20 00:00:00+00:00,35514.17550956323
2025-03-21 00:00:00+00:00,35514.17550956323
2025-03-22 00:00:00+00:00,35514.17550956323
2025-03-23 00:00:00+00:00,35514.17550956323
2025-03-24 00:00:00+00:00,35514.17550956323
2025-03-25 00:00:00+00:00,35514.17550956323
2025-03-26 00:00:00+00:00,35514.17550956323
2025-03-27 00:00:00+00:00,35514.17550956323
2025-03-28 00:00:00+00:00,35514.17550956323
2025-03-29 00:00:00+00:00,35514.17550956323
2025-03-30 00:00:00+00:00,35514.17550956323
2025-03-31 00:00:00+00:00,35514.17550956323
2025-04-01 00:00:00+00:00,35514.17550956323
2025-04-02 00:00:00+00:00,35514.17550956323
2025-04-03 00:00:00+00:00,35514.17550956323
2025-04-04 00:00:00+00:00,35514.17550956323
2025-04-05 00:00:00+00:00,35514.17550956323
2025-04-06 00:00:00+00:00,35514.17550956323
2025-04-07 00:00:00+00:00,35514.17550956323
2025-04-08 00:00:00+00:00,35514.17550956323
2025-04-09 00:00:00+00:00,35514.17550956323
2025-04-10 00:00:00+00:00,35514.17550956323
2025-04-11 00:00:00+00:00,35514.17550956323
2025-04-12 00:00:00+00:00,35514.17550956323
2025-04-13 00:00:00+00:00,35514.17550956323
2025-04-14 00:00:00+00:00,35514.17550956323
2025-04-15 00:00:00+00:00,35514.17550956323
2025-04-16 00:00:00+00:00,35514.17550956323
2025-04-17 00:00:00+00:00,35514.17550956323
2025-04-18 00:00:00+00:00,35514.17550956323
2025-04-19 00:00:00+00:00,35514.17550956323
2025-04-20 00:00:00+00:00,35514.17550956323
2025-04-21 00:00:00+00:00,35514.17550956323
2025-04-22 00:00:00+00:00,35443.28893169983
2025-04-23 00:00:00+00:00,35993.55438927244
2025-04-24 00:00:00+00:00,36338.95911372276
2025-04-25 00:00:00+00:00,35926.855545930295
2025-04-26 00:00:00+00:00,35543.337196713044
2025-04-27 00:00:00+00:00,35250.338706317234
2025-04-28 00:00:00+00:00,35216.98928464617
2025-04-29 00:00:00+00:00,34852.527747812375
2025-04-30 00:00:00+00:00,35145.52623820817
2025-05-01 00:00:00+00:00,35934.001850574095
2025-05-02 00:00:00+00:00,35267.013417152775
2025-05-03 00:00:00+00:00,34947.81180972971
2025-05-04 00:00:00+00:00,34290.35178250011
2025-05-05 00:00:00+00:00,34950.19391127764
2025-05-06 00:00:00+00:00,34988.30753604457
2025-05-07 00:00:00+00:00,35093.120004153636
2025-05-08 00:00:00+00:00,39176.042057311344
2025-05-09 00:00:00+00:00,41157.95054519187
2025-05-10 00:00:00+00:00,42375.20443618579
2025-05-11 00:00:00+00:00,41255.61670865714
2025-05-12 00:00:00+00:00,41500.973168094264
2025-05-13 00:00:00+00:00,43771.115943274715
2025-05-14 00:00:00+00:00,42077.44174269412
2025-05-15 00:00:00+00:00,40295.629784840006
2025-05-16 00:00:00+00:00,39876.37991240374
2025-05-17 00:00:00+00:00,39528.593086405475
2025-05-18 00:00:00+00:00,41281.819825684404
2025-05-19 00:00:00+00:00,39747.74642881534
2025-05-20 00:00:00+00:00,40159.8499966078
2025-05-21 00:00:00+00:00,41336.608161286866
2025-05-22 00:00:00+00:00,42801.60061326585
2025-05-23 00:00:00+00:00,41450.949035587655
2025-05-24 00:00:00+00:00,41894.01992350326
2025-05-25 00:00:00+00:00,41863.05260338012
2025-05-26 00:00:00+00:00,41665.33817490166
2025-05-27 00:00:00+00:00,42094.11645352966
2025-05-28 00:00:00+00:00,41022.17075695966
2025-05-29 00:00:00+00:00,39712.01490559634
2025-05-30 00:00:00+00:00,37140.97152858515
2025-05-31 00:00:00+00:00,37140.97152858515
2025-06-01 00:00:00+00:00,37140.97152858515
2025-06-02 00:00:00+00:00,37140.97152858515
2025-06-03 00:00:00+00:00,37140.97152858515
2025-06-04 00:00:00+00:00,37140.97152858515
2025-06-05 00:00:00+00:00,37140.97152858515
2025-06-06 00:00:00+00:00,37140.97152858515
2025-06-07 00:00:00+00:00,37140.97152858515
2025-06-08 00:00:00+00:00,37140.97152858515
2025-06-09 00:00:00+00:00,37140.97152858515
2025-06-10 00:00:00+00:00,37140.97152858515
2025-06-11 00:00:00+00:00,37140.97152858515
2025-06-12 00:00:00+00:00,37140.97152858515
2025-06-13 00:00:00+00:00,37140.97152858515
2025-06-14 00:00:00+00:00,37140.97152858515
2025-06-15 00:00:00+00:00,37140.97152858515
2025-06-16 00:00:00+00:00,37140.97152858515
2025-06-17 00:00:00+00:00,37140.97152858515
2025-06-18 00:00:00+00:00,37140.97152858515
2025-06-19 00:00:00+00:00,37140.97152858515
2025-06-20 00:00:00+00:00,37140.97152858515
2025-06-21 00:00:00+00:00,37140.97152858515
2025-06-22 00:00:00+00:00,37140.97152858515
2025-06-23 00:00:00+00:00,37140.97152858515
2025-06-24 00:00:00+00:00,37140.97152858515
2025-06-25 00:00:00+00:00,37140.97152858515
2025-06-26 00:00:00+00:00,37140.97152858515
2025-06-27 00:00:00+00:00,37140.97152858515
2025-06-28 00:00:00+00:00,37140.97152858515
2025-06-29 00:00:00+00:00,37140.97152858515
2025-06-30 00:00:00+00:00,37140.97152858515
2025-07-01 00:00:00+00:00,37140.97152858515
2025-07-02 00:00:00+00:00,37140.97152858515
2025-07-03 00:00:00+00:00,37140.97152858515
2025-07-04 00:00:00+00:00,37140.97152858515
2025-07-05 00:00:00+00:00,37140.97152858515
2025-07-06 00:00:00+00:00,37140.97152858515
2025-07-07 00:00:00+00:00,37140.97152858515
2025-07-08 00:00:00+00:00,37140.97152858515
2025-07-09 00:00:00+00:00,37140.97152858515
2025-07-10 00:00:00+00:00,37066.8378528794
2025-07-11 00:00:00+00:00,36748.81277455057
2025-07-12 00:00:00+00:00,36243.58144443951
2025-07-13 00:00:00+00:00,36347.33430687304
2025-07-14 00:00:00+00:00,36586.416989872014
2025-07-15 00:00:00+00:00,36985.63996054012
2025-07-16 00:00:00+00:00,39162.194574634595
2025-07-17 00:00:00+00:00,39667.425904745636
2025-07-18 00:00:00+00:00,39985.45098307447
2025-07-19 00:00:00+00:00,39913.275078772895
2025-07-20 00:00:00+00:00,40921.48224198558
2025-07-21 00:00:00+00:00,44144.58746845294
2025-07-22 00:00:00+00:00,46395.57348385841
2025-07-23 00:00:00+00:00,42719.11335849676
2025-07-24 00:00:00+00:00,41246.27381134267
2025-07-25 00:00:00+00:00,39908.69577541605
2025-07-26 00:00:00+00:00,39908.69577541605
2025-07-27 00:00:00+00:00,39908.69577541605
2025-07-28 00:00:00+00:00,39908.69577541605
2025-07-29 00:00:00+00:00,39908.69577541605
2025-07-30 00:00:00+00:00,39908.69577541605
2025-07-31 00:00:00+00:00,39908.69577541605
2025-08-01 00:00:00+00:00,39908.69577541605
2025-08-02 00:00:00+00:00,39908.69577541605
2025-08-03 00:00:00+00:00,39908.69577541605
2025-08-04 00:00:00+00:00,39908.69577541605
2025-08-05 00:00:00+00:00,39908.69577541605
2025-08-06 00:00:00+00:00,39908.69577541605
2025-08-07 00:00:00+00:00,39908.69577541605
2025-08-08 00:00:00+00:00,39908.69577541605
2025-08-09 00:00:00+00:00,39908.69577541605
2025-08-10 00:00:00+00:00,39908.69577541605
2025-08-11 00:00:00+00:00,39908.69577541605
2025-08-12 00:00:00+00:00,39908.69577541605
2025-08-13 00:00:00+00:00,39908.69577541605
2025-08-14 00:00:00+00:00,39908.69577541605
2025-08-15 00:00:00+00:00,39908.69577541605
2025-08-16 00:00:00+00:00,39908.69577541605
2025-08-17 00:00:00+00:00,39908.69577541605
2025-08-18 00:00:00+00:00,39908.69577541605
2025-08-19 00:00:00+00:00,39908.69577541605
2025-08-20 00:00:00+00:00,39908.69577541605
2025-08-21 00:00:00+00:00,39908.69577541605
2025-08-22 00:00:00+00:00,39908.69577541605
2025-08-23 00:00:00+00:00,39908.69577541605
2025-08-24 00:00:00+00:00,39908.69577541605
2025-08-25 00:00:00+00:00,39908.69577541605
2025-08-26 00:00:00+00:00,39908.69577541605
2025-08-27 00:00:00+00:00,39908.69577541605
2025-08-28 00:00:00+00:00,39908.69577541605
2025-08-29 00:00:00+00:00,39908.69577541605
2025-08-30 00:00:00+00:00,39908.69577541605
2025-08-31 00:00:00+00:00,39908.69577541605
2025-09-01 00:00:00+00:00,39908.69577541605
2025-09-02 00:00:00+00:00,39908.69577541605
2025-09-03 00:00:00+00:00,39908.69577541605
2025-09-04 00:00:00+00:00,39908.69577541605
2025-09-05 00:00:00+00:00,39908.69577541605
2025-09-06 00:00:00+00:00,39908.69577541605
2025-09-07 00:00:00+00:00,39908.69577541605
2025-09-08 00:00:00+00:00,39908.69577541605
2025-09-09 00:00:00+00:00,39908.69577541605
2025-09-10 00:00:00+00:00,39908.69577541605
2025-09-11 00:00:00+00:00,39908.69577541605
2025-09-12 00:00:00+00:00,39908.69577541605
2025-09-13 00:00:00+00:00,39908.69577541605
2025-09-14 00:00:00+00:00,39908.69577541605
2025-09-15 00:00:00+00:00,39908.69577541605
2025-09-16 00:00:00+00:00,39908.69577541605
2025-09-17 00:00:00+00:00,39908.69577541605
2025-09-18 00:00:00+00:00,39908.69577541605
2025-09-19 00:00:00+00:00,39908.69577541605
2025-09-20 00:00:00+00:00,39908.69577541605
2025-09-21 00:00:00+00:00,39908.69577541605
2025-09-22 00:00:00+00:00,39908.69577541605
2025-09-23 00:00:00+00:00,39908.69577541605
2025-09-24 00:00:00+00:00,39908.69577541605
2025-09-25 00:00:00+00:00,39908.69577541605
2025-09-26 00:00:00+00:00,39908.69577541605
2025-09-27 00:00:00+00:00,39908.69577541605
2025-09-28 00:00:00+00:00,39908.69577541605
2025-09-29 00:00:00+00:00,39908.69577541605
2025-09-30 00:00:00+00:00,39908.69577541605
2025-10-01 00:00:00+00:00,39908.69577541605
2025-10-02 00:00:00+00:00,39908.69577541605
2025-10-03 00:00:00+00:00,39908.69577541605
2025-10-04 00:00:00+00:00,39908.69577541605
2025-10-05 00:00:00+00:00,39908.69577541605
2025-10-06 00:00:00+00:00,39908.69577541605
2025-10-07 00:00:00+00:00,39908.69577541605
2025-10-08 00:00:00+00:00,39908.69577541605
2025-10-09 00:00:00+00:00,39908.69577541605
2025-10-10 00:00:00+00:00,39908.69577541605
2025-10-11 00:00:00+00:00,39908.69577541605
2025-10-12 00:00:00+00:00,39908.69577541605
2025-10-13 00:00:00+00:00,39908.69577541605
2025-10-14 00:00:00+00:00,39908.69577541605
2025-10-15 00:00:00+00:00,39908.69577541605
2025-10-16 00:00:00+00:00,39908.69577541605
2025-10-17 00:00:00+00:00,39908.69577541605
2025-10-18 00:00:00+00:00,39908.69577541605
2025-10-19 00:00:00+00:00,39908.69577541605
2025-10-20 00:00:00+00:00,39908.69577541605
2025-10-21 00:00:00+00:00,39908.69577541605
2025-10-22 00:00:00+00:00,39908.69577541605
2025-10-23 00:00:00+00:00,39908.69577541605
2025-10-24 00:00:00+00:00,39908.69577541605
2025-10-25 00:00:00+00:00,39908.69577541605
2025-10-26 00:00:00+00:00,39908.69577541605
2025-10-27 00:00:00+00:00,39908.69577541605
2025-10-28 00:00:00+00:00,39908.69577541605
2025-10-29 00:00:00+00:00,39908.69577541605
2025-10-30 00:00:00+00:00,39908.69577541605
2025-10-31 00:00:00+00:00,39908.69577541605
2025-11-01 00:00:00+00:00,39908.69577541605
2025-11-02 00:00:00+00:00,39908.69577541605
2025-11-03 00:00:00+00:00,39908.69577541605
2025-11-04 00:00:00+00:00,39908.69577541605
2025-11-05 00:00:00+00:00,39908.69577541605
2025-11-06 00:00:00+00:00,39908.69577541605
2025-11-07 00:00:00+00:00,39908.69577541605
2025-11-08 00:00:00+00:00,39908.69577541605
2025-11-09 00:00:00+00:00,39908.69577541605
2025-11-10 00:00:00+00:00,39908.69577541605
2025-11-11 00:00:00+00:00,39908.69577541605
2025-11-12 00:00:00+00:00,39908.69577541605
2025-11-13 00:00:00+00:00,39908.69577541605
2025-11-14 00:00:00+00:00,39908.69577541605
2025-11-15 00:00:00+00:00,39908.69577541605
2025-11-16 00:00:00+00:00,39908.69577541605
2025-11-17 00:00:00+00:00,39908.69577541605
2025-11-18 00:00:00+00:00,39908.69577541605
2025-11-19 00:00:00+00:00,39908.69577541605
2025-11-20 00:00:00+00:00,39908.69577541605
2025-11-21 00:00:00+00:00,39908.69577541605
2025-11-22 00:00:00+00:00,39908.69577541605
2025-11-23 00:00:00+00:00,39908.69577541605
2025-11-24 00:00:00+00:00,39908.69577541605
2025-11-25 00:00:00+00:00,39908.69577541605
2025-11-26 00:00:00+00:00,39908.69577541605
2025-11-27 00:00:00+00:00,39908.69577541605
2025-11-28 00:00:00+00:00,39908.69577541605
2025-11-29 00:00:00+00:00,39908.69577541605
2025-11-30 00:00:00+00:00,39908.69577541605
2025-12-01 00:00:00+00:00,39908.69577541605
2025-12-02 00:00:00+00:00,39908.69577541605
2025-12-03 00:00:00+00:00,39908.69577541605
2025-12-04 00:00:00+00:00,39908.69577541605
2025-12-05 00:00:00+00:00,39908.69577541605
2025-12-06 00:00:00+00:00,39908.69577541605
2025-12-07 00:00:00+00:00,39908.69577541605
2025-12-08 00:00:00+00:00,39908.69577541605
2025-12-09 00:00:00+00:00,39908.69577541605
2025-12-10 00:00:00+00:00,39908.69577541605
2025-12-11 00:00:00+00:00,39908.69577541605
2025-12-12 00:00:00+00:00,39908.69577541605
2025-12-13 00:00:00+00:00,39908.69577541605
2025-12-14 00:00:00+00:00,39908.69577541605
2025-12-15 00:00:00+00:00,39908.69577541605
2025-12-16 00:00:00+00:00,39908.69577541605
2025-12-17 00:00:00+00:00,39908.69577541605
2025-12-18 00:00:00+00:00,39908.69577541605
2025-12-19 00:00:00+00:00,39908.69577541605
2025-12-20 00:00:00+00:00,39908.69577541605
2025-12-21 00:00:00+00:00,39908.69577541605
2025-12-22 00:00:00+00:00,39908.69577541605
2025-12-23 00:00:00+00:00,39908.69577541605
2025-12-24 00:00:00+00:00,39908.69577541605
2025-12-25 00:00:00+00:00,39908.69577541605
2025-12-26 00:00:00+00:00,39908.69577541605
2025-12-27 00:00:00+00:00,39908.69577541605
2025-12-28 00:00:00+00:00,39908.69577541605
2025-12-29 00:00:00+00:00,39908.69577541605
2025-12-30 00:00:00+00:00,39908.69577541605
2025-12-31 00:00:00+00:00,39908.69577541605
2026-01-01 00:00:00+00:00,39908.69577541605
2026-01-02 00:00:00+00:00,39908.69577541605
2026-01-03 00:00:00+00:00,39908.69577541605
2026-01-04 00:00:00+00:00,39908.69577541605
2026-01-05 00:00:00+00:00,39908.69577541605
2026-01-06 00:00:00+00:00,39908.69577541605
2026-01-07 00:00:00+00:00,39908.69577541605
2026-01-08 00:00:00+00:00,39908.69577541605
2026-01-09 00:00:00+00:00,39908.69577541605
2026-01-10 00:00:00+00:00,39908.69577541605
2026-01-11 00:00:00+00:00,39908.69577541605
2026-01-12 00:00:00+00:00,39908.69577541605
2026-01-13 00:00:00+00:00,39908.69577541605
2026-01-14 00:00:00+00:00,39908.69577541605
2026-01-15 00:00:00+00:00,39908.69577541605
2026-01-16 00:00:00+00:00,39908.69577541605
2026-01-17 00:00:00+00:00,39908.69577541605
2026-01-18 00:00:00+00:00,39908.69577541605
2026-01-19 00:00:00+00:00,39908.69577541605
2026-01-20 00:00:00+00:00,39908.69577541605
2026-01-21 00:00:00+00:00,39908.69577541605
2026-01-22 00:00:00+00:00,39908.69577541605
2026-01-23 00:00:00+00:00,39908.69577541605
2026-01-24 00:00:00+00:00,39908.69577541605
2026-01-25 00:00:00+00:00,39908.69577541605
2026-01-26 00:00:00+00:00,39908.69577541605
2026-01-27 00:00:00+00:00,39908.69577541605
2026-01-28 00:00:00+00:00,39908.69577541605
2026-01-29 00:00:00+00:00,39908.69577541605
2026-01-30 00:00:00+00:00,39908.69577541605
2026-01-31 00:00:00+00:00,39908.69577541605
2026-02-01 00:00:00+00:00,39908.69577541605
2026-02-02 00:00:00+00:00,39908.69577541605
2026-02-03 00:00:00+00:00,39908.69577541605
2026-02-04 00:00:00+00:00,39908.69577541605
2026-02-05 00:00:00+00:00,39908.69577541605
2026-02-06 00:00:00+00:00,39908.69577541605
2026-02-07 00:00:00+00:00,39908.69577541605
2026-02-08 00:00:00+00:00,39908.69577541605
2026-02-09 00:00:00+00:00,39908.69577541605
2026-02-10 00:00:00+00:00,39908.69577541605
2026-02-11 00:00:00+00:00,39908.69577541605
2026-02-12 00:00:00+00:00,39908.69577541605
2026-02-13 00:00:00+00:00,39908.69577541605
2026-02-14 00:00:00+00:00,39908.69577541605
2026-02-15 00:00:00+00:00,39908.69577541605
2026-02-16 00:00:00+00:00,39908.69577541605
2026-02-17 00:00:00+00:00,39908.69577541605
2026-02-18 00:00:00+00:00,39908.69577541605
2026-02-19 00:00:00+00:00,39908.69577541605
2026-02-20 00:00:00+00:00,39908.69577541605
2026-02-21 00:00:00+00:00,39908.69577541605
2026-02-22 00:00:00+00:00,39908.69577541605
2026-02-23 00:00:00+00:00,39908.69577541605
2026-02-24 00:00:00+00:00,39908.69577541605
2026-02-25 00:00:00+00:00,39908.69577541605
2026-02-26 00:00:00+00:00,39908.69577541605
2026-02-27 00:00:00+00:00,39908.69577541605
2026-02-28 00:00:00+00:00,39908.69577541605
2026-03-01 00:00:00+00:00,39908.69577541605
2026-03-02 00:00:00+00:00,39908.69577541605
2026-03-03 00:00:00+00:00,39908.69577541605
2026-03-04 00:00:00+00:00,39908.69577541605
2026-03-05 00:00:00+00:00,39908.69577541605
2026-03-06 00:00:00+00:00,39908.69577541605
2026-03-07 00:00:00+00:00,39908.69577541605
2026-03-08 00:00:00+00:00,39908.69577541605
2026-03-09 00:00:00+00:00,39908.69577541605
2026-03-10 00:00:00+00:00,39908.69577541605
2026-03-11 00:00:00+00:00,39908.69577541605
2026-03-12 00:00:00+00:00,39908.69577541605
2026-03-13 00:00:00+00:00,39908.69577541605
2026-03-14 00:00:00+00:00,39908.69577541605
2026-03-15 00:00:00+00:00,39908.69577541605
2026-03-16 00:00:00+00:00,39908.69577541605
2026-03-17 00:00:00+00:00,39908.69577541605
2026-03-18 00:00:00+00:00,39908.69577541605
2026-03-19 00:00:00+00:00,39908.69577541605
2026-03-20 00:00:00+00:00,39908.69577541605
2026-03-21 00:00:00+00:00,39908.69577541605
2026-03-22 00:00:00+00:00,39908.69577541605
2026-03-23 00:00:00+00:00,39908.69577541605
2026-03-24 00:00:00+00:00,39908.69577541605
2026-03-25 00:00:00+00:00,39908.69577541605
2026-03-26 00:00:00+00:00,39908.69577541605
2026-03-27 00:00:00+00:00,39908.69577541605
2026-03-28 00:00:00+00:00,39908.69577541605
2026-03-29 00:00:00+00:00,39908.69577541605
2026-03-30 00:00:00+00:00,39908.69577541605
2026-03-31 00:00:00+00:00,39908.69577541605
2026-04-01 00:00:00+00:00,39908.69577541605
2026-04-02 00:00:00+00:00,39908.69577541605
2026-04-03 00:00:00+00:00,39908.69577541605
2026-04-04 00:00:00+00:00,39908.69577541605
2026-04-05 00:00:00+00:00,39908.69577541605
2026-04-06 00:00:00+00:00,39908.69577541605
2026-04-07 00:00:00+00:00,39908.69577541605
2026-04-08 00:00:00+00:00,39908.69577541605
2026-04-09 00:00:00+00:00,39908.69577541605
2026-04-10 00:00:00+00:00,39908.69577541605
2026-04-11 00:00:00+00:00,39908.69577541605
2026-04-12 00:00:00+00:00,39908.69577541605
2026-04-13 00:00:00+00:00,39908.69577541605
2026-04-14 00:00:00+00:00,39908.69577541605
2026-04-15 00:00:00+00:00,39908.69577541605
2026-04-16 00:00:00+00:00,39908.69577541605
2026-04-17 00:00:00+00:00,39908.69577541605
2026-04-18 00:00:00+00:00,39908.69577541605
2026-04-19 00:00:00+00:00,39908.69577541605
2026-04-20 00:00:00+00:00,39908.69577541605
2026-04-21 00:00:00+00:00,39908.69577541605
2026-04-22 00:00:00+00:00,39908.69577541605
2026-04-23 00:00:00+00:00,39908.69577541605
2026-04-24 00:00:00+00:00,39908.69577541605
2026-04-25 00:00:00+00:00,39908.69577541605
2026-04-26 00:00:00+00:00,39908.69577541605
2026-04-27 00:00:00+00:00,39908.69577541605
2026-04-28 00:00:00+00:00,39908.69577541605
2026-04-29 00:00:00+00:00,39908.69577541605
2026-04-30 00:00:00+00:00,39908.69577541605
2026-05-01 00:00:00+00:00,39908.69577541605
2026-05-02 00:00:00+00:00,39908.69577541605
2026-05-03 00:00:00+00:00,39908.69577541605
2026-05-04 00:00:00+00:00,39908.69577541605
2026-05-05 00:00:00+00:00,39908.69577541605
2026-05-06 00:00:00+00:00,39908.69577541605
2026-05-07 00:00:00+00:00,39908.69577541605
2026-05-08 00:00:00+00:00,39908.69577541605
2026-05-09 00:00:00+00:00,39908.69577541605
2026-05-10 00:00:00+00:00,39908.69577541605
2026-05-11 00:00:00+00:00,39908.69577541605
2026-05-12 00:00:00+00:00,39908.69577541605
2026-05-13 00:00:00+00:00,39908.69577541605
2026-05-14 00:00:00+00:00,39908.69577541605
2026-05-15 00:00:00+00:00,39908.69577541605
2026-05-16 00:00:00+00:00,39908.69577541605
2026-05-17 00:00:00+00:00,39908.69577541605
2026-05-18 00:00:00+00:00,39908.69577541605
2026-05-19 00:00:00+00:00,39908.69577541605
2026-05-20 00:00:00+00:00,39908.69577541605
2026-05-21 00:00:00+00:00,39908.69577541605
2026-05-22 00:00:00+00:00,39908.69577541605
2026-05-23 00:00:00+00:00,39908.69577541605
2026-05-24 00:00:00+00:00,39908.69577541605
2026-05-25 00:00:00+00:00,39908.69577541605
2026-05-26 00:00:00+00:00,39908.69577541605
2026-05-27 00:00:00+00:00,39908.69577541605
2026-05-28 00:00:00+00:00,39908.69577541605
2026-05-29 00:00:00+00:00,39908.69577541605
2026-05-30 00:00:00+00:00,39908.69577541605
2026-05-31 00:00:00+00:00,39908.69577541605
2026-06-01 00:00:00+00:00,39908.69577541605
2026-06-02 00:00:00+00:00,39908.69577541605
2026-06-03 00:00:00+00:00,39908.69577541605
2026-06-04 00:00:00+00:00,39908.69577541605
2026-06-05 00:00:00+00:00,39908.69577541605
2026-06-06 00:00:00+00:00,39908.69577541605
2026-06-07 00:00:00+00:00,39908.69577541605
2026-06-08 00:00:00+00:00,39908.69577541605
2026-06-09 00:00:00+00:00,39908.69577541605
2026-06-10 00:00:00+00:00,39908.69577541605
2026-06-11 00:00:00+00:00,39908.69577541605
2026-06-12 00:00:00+00:00,39908.69577541605
2026-06-13 00:00:00+00:00,39908.69577541605
2026-06-14 00:00:00+00:00,39908.69577541605
2026-06-15 00:00:00+00:00,39908.69577541605
2026-06-16 00:00:00+00:00,39908.69577541605
2026-06-17 00:00:00+00:00,39908.69577541605
2026-06-18 00:00:00+00:00,39908.69577541605
2026-06-19 00:00:00+00:00,39908.69577541605
2026-06-20 00:00:00+00:00,39908.69577541605
2026-06-21 00:00:00+00:00,39908.69577541605
2026-06-22 00:00:00+00:00,39908.69577541605
2026-06-23 00:00:00+00:00,39908.69577541605
2026-06-24 00:00:00+00:00,39908.69577541605
2026-06-25 00:00:00+00:00,39908.69577541605
2026-06-26 00:00:00+00:00,39908.69577541605
2026-06-27 00:00:00+00:00,39908.69577541605
2026-06-28 00:00:00+00:00,39908.69577541605
2026-06-29 00:00:00+00:00,39908.69577541605
2026-06-30 00:00:00+00:00,39908.69577541605
2026-07-01 00:00:00+00:00,39908.69577541605
2026-07-02 00:00:00+00:00,39908.69577541605
2026-07-03 00:00:00+00:00,39908.69577541605
2026-07-04 00:00:00+00:00,39908.69577541605
2026-07-05 00:00:00+00:00,39908.69577541605
2026-07-06 00:00:00+00:00,39908.69577541605
2026-07-07 00:00:00+00:00,39908.69577541605
2026-07-08 00:00:00+00:00,39908.69577541605
2026-07-09 00:00:00+00:00,39908.69577541605
2026-07-10 00:00:00+00:00,39908.69577541605
2026-07-11 00:00:00+00:00,39908.69577541605
2026-07-12 00:00:00+00:00,39908.69577541605
2026-07-13 00:00:00+00:00,39908.69577541605
2026-07-14 00:00:00+00:00,39908.69577541605
2026-07-15 00:00:00+00:00,39908.69577541605
2026-07-16 00:00:00+00:00,39908.69577541605
2026-07-17 00:00:00+00:00,39908.69577541605
2026-07-18 00:00:00+00:00,39908.69577541605
2026-07-19 00:00:00+00:00,39908.69577541605
2026-07-20 00:00:00+00:00,39908.69577541605
2026-07-21 00:00:00+00:00,39908.69577541605
2026-07-22 00:00:00+00:00,39908.69577541605
2026-07-23 00:00:00+00:00,39908.69577541605
2026-07-24 00:00:00+00:00,39908.69577541605
2026-07-25 00:00:00+00:00,39908.69577541605
2026-07-26 00:00:00+00:00,39908.69577541605
2026-07-27 00:00:00+00:00,39908.69577541605
2026-07-28 00:00:00+00:00,39908.69577541605
2026-07-29 00:00:00+00:00,39908.69577541605
2026-07-30 00:00:00+00:00,39908.69577541605
2026-07-31 00:00:00+00:00,39908.69577541605
2026-08-01 00:00:00+00:00,39908.69577541605
2026-08-02 00:00:00+00:00,39908.69577541605
2026-08-03 00:00:00+00:00,39908.69577541605
2026-08-04 00:00:00+00:00,39908.69577541605
2026-08-05 00:00:00+00:00,39908.69577541605
2026-08-06 00:00:00+00:00,39908.69577541605
2026-08-07 00:00:00+00:00,39908.69577541605
2026-08-08 00:00:00+00:00,39908.69577541605
2026-08-09 00:00:00+00:00,39908.69577541605
2026-08-10 00:00:00+00:00,39908.69577541605
2026-08-11 00:00:00+00:00,39908.69577541605
2026-08-12 00:00:00+00:00,39908.69577541605
2026-08-13 00:00:00+00:00,39908.69577541605
2026-08-14 00:00:00+00:00,39908.69577541605
2026-08-15 00:00:00+00:00,39908.69577541605
2026-08-16 00:00:00+00:00,39908.69577541605
2026-08-17 00:00:00+00:00,39908.69577541605
2026-08-18 00:00:00+00:00,39908.69577541605
2026-08-19 00:00:00+00:00,39829.037700016015
2026-08-20 00:00:00+00:00,40892.6381445702
2026-08-21 00:00:00+00:00,43719.576168253705
2026-08-22 00:00:00+00:00,43766.22531055871
2026-08-23 00:00:00+00:00,44517.276501669345
2026-08-24 00:00:00+00:00,46168.65613926663
2026-08-25 00:00:00+00:00,45063.071466637935
2026-08-26 00:00:00+00:00,47614.77955072188
2026-08-27 00:00:00+00:00,50912.873911685965
2026-08-28 00:00:00+00:00,48585.08171066606
2026-08-29 00:00:00+00:00,49266.15918831918
2026-08-30 00:00:00+00:00,47465.50229534586
2026-08-31 00:00:00+00:00,48076.606059541475
2026-09-01 00:00:00+00:00,46649.142305008216
2026-09-02 00:00:00+00:00,46849.73361691975
2026-09-03 00:00:00+00:00,48487.11851182554
2026-09-04 00:00:00+00:00,47549.47075149488
2026-09-05 00:00:00+00:00,48132.58503030749
2026-09-06 00:00:00+00:00,49704.661125986255
2026-09-07 00:00:00+00:00,48421.80971259853
2026-09-08 00:00:00+00:00,48221.218400687
2026-09-09 00:00:00+00:00,47381.53383919684
2026-09-10 00:00:00+00:00,46028.70871235161
2026-09-11 00:00:00+00:00,47796.71120571142
2026-09-12 00:00:00+00:00,47470.16720957637
2026-09-13 00:00:00+00:00,46322.59830887316
2026-09-14 00:00:00+00:00,47829.36560532493
2026-09-15 00:00:00+00:00,45193.68906509196
2026-09-16 00:00:00+00:00,46024.04379812111
2026-09-17 00:00:00+00:00,47414.188238810355
2026-09-18 00:00:00+00:00,52582.91320620527
2026-09-19 00:00:00+00:00,51808.53744394213
2026-09-20 00:00:00+00:00,51859.851500477635
2026-09-21 00:00:00+00:00,55465.830200654775
2026-09-22 00:00:00+00:00,55311.888031048235
2026-09-23 00:00:00+00:00,53534.56503905589
