ts,equity
2023-09-25 00:00:00+00:00,10000.0
2023-09-26 00:00:00+00:00,10000.0
2023-09-27 00:00:00+00:00,10000.0
2023-09-28 00:00:00+00:00,10000.0
2023-09-29 00:00:00+00:00,10000.0
2023-10-02 00:00:00+00:00,10000.0
2023-10-03 00:00:00+00:00,10000.0
2023-10-04 00:00:00+00:00,10000.0
2023-10-05 00:00:00+00:00,10000.0
2023-10-06 00:00:00+00:00,10000.0
2023-10-09 00:00:00+00:00,10000.0
2023-10-10 00:00:00+00:00,10000.0
2023-10-11 00:00:00+00:00,10000.0
2023-10-12 00:00:00+00:00,10000.0
2023-10-13 00:00:00+00:00,10000.0
2023-10-16 00:00:00+00:00,10000.0
2023-10-17 00:00:00+00:00,10000.0
2023-10-18 00:00:00+00:00,10000.0
2023-10-19 00:00:00+00:00,10000.0
2023-10-20 00:00:00+00:00,10000.0
2023-10-23 00:00:00+00:00,10000.0
2023-10-24 00:00:00+00:00,10000.0
2023-10-25 00:00:00+00:00,10000.0
2023-10-26 00:00:00+00:00,10000.0
2023-10-27 00:00:00+00:00,10000.0
2023-10-30 00:00:00+00:00,10000.0
2023-10-31 00:00:00+00:00,10000.0
2023-11-01 00:00:00+00:00,10000.0
2023-11-02 00:00:00+00:00,10000.0
2023-11-03 00:00:00+00:00,10000.0
2023-11-06 00:00:00+00:00,10000.0
2023-11-07 00:00:00+00:00,10000.0
2023-11-08 00:00:00+00:00,10000.0
2023-11-09 00:00:00+00:00,10000.0
2023-11-10 00:00:00+00:00,10000.0
2023-11-13 00:00:00+00:00,10000.0
2023-11-14 00:00:00+00:00,10000.0
2023-11-15 00:00:00+00:00,10000.0
2023-11-16 00:00:00+00:00,10000.0
2023-11-17 00:00:00+00:00,10000.0
2023-11-20 00:00:00+00:00,10000.0
2023-11-21 00:00:00+00:00,10000.0
2023-11-22 00:00:00+00:00,10000.0
2023-11-24 00:00:00+00:00,10000.0
2023-11-27 00:00:00+00:00,10000.0
2023-11-28 00:00:00+00:00,10000.0
2023-11-29 00:00:00+00:00,10000.0
2023-11-30 00:00:00+00:00,10000.0
2023-12-01 00:00:00+00:00,10000.0
2023-12-04 00:00:00+00:00,10000.0
2023-12-05 00:00:00+00:00,10000.0
2023-12-06 00:00:00+00:00,10000.0
2023-12-07 00:00:00+00:00,10000.0
2023-12-08 00:00:00+00:00,10000.0
2023-12-11 00:00:00+00:00,10000.0
2023-12-12 00:00:00+00:00,10000.0
2023-12-13 00:00:00+00:00,10000.0
2023-12-14 00:00:00+00:00,10000.0
2023-12-15 00:00:00+00:00,10000.0
2023-12-18 00:00:00+00:00,10000.0
2023-12-19 00:00:00+00:00,10000.0
2023-12-20 00:00:00+00:00,10000.0
2023-12-21 00:00:00+00:00,10000.0
2023-12-22 00:00:00+00:00,10000.0
2023-12-26 00:00:00+00:00,10000.0
2023-12-27 00:00:00+00:00,10000.0
2023-12-28 00:00:00+00:00,10000.0
2023-12-29 00:00:00+00:00,10000.0
2024-01-02 00:00:00+00:00,10000.0
2024-01-03 00:00:00+00:00,10000.0
2024-01-04 00:00:00+00:00,10000.0
2024-01-05 00:00:00+00:00,10000.0
2024-01-08 00:00:00+00:00,10000.0
2024-01-09 00:00:00+00:00,10000.0
2024-01-10 00:00:00+00:00,10000.0
2024-01-11 00:00:00+00:00,10000.0
2024-01-12 00:00:00+00:00,10000.0
2024-01-16 00:00:00+00:00,10000.0
2024-01-17 00:00:00+00:00,10000.0
2024-01-18 00:00:00+00:00,10000.0
2024-01-19 00:00:00+00:00,10000.0
2024-01-22 00:00:00+00:00,10000.0
2024-01-23 00:00:00+00:00,10000.0
2024-01-24 00:00:00+00:00,10000.0
2024-01-25 00:00:00+00:00,10000.0
2024-01-26 00:00:00+00:00,10000.0
2024-01-29 00:00:00+00:00,10000.0
2024-01-30 00:00:00+00:00,10000.0
2024-01-31 00:00:00+00:00,10000.0
2024-02-01 00:00:00+00:00,10000.0
2024-02-02 00:00:00+00:00,10000.0
2024-02-05 00:00:00+00:00,10000.0
2024-02-06 00:00:00+00:00,10000.0
2024-02-07 00:00:00+00:00,10000.0
2024-02-08 00:00:00+00:00,10000.0
2024-02-09 00:00:00+00:00,10000.0
2024-02-12 00:00:00+00:00,10000.0
2024-02-13 00:00:00+00:00,10000.0
2024-02-14 00:00:00+00:00,10000.0
2024-02-15 00:00:00+00:00,10000.0
2024-02-16 00:00:00+00:00,10000.0
2024-02-20 00:00:00+00:00,10000.0
2024-02-21 00:00:00+00:00,10000.0
2024-02-22 00:00:00+00:00,10000.0
2024-02-23 00:00:00+00:00,10000.0
2024-02-26 00:00:00+00:00,10000.0
2024-02-27 00:00:00+00:00,10000.0
2024-02-28 00:00:00+00:00,10000.0
2024-02-29 00:00:00+00:00,10000.0
2024-03-01 00:00:00+00:00,10000.0
2024-03-04 00:00:00+00:00,10000.0
2024-03-05 00:00:00+00:00,10000.0
2024-03-06 00:00:00+00:00,10000.0
2024-03-07 00:00:00+00:00,10000.0
2024-03-08 00:00:00+00:00,10000.0
2024-03-11 00:00:00+00:00,10000.0
2024-03-12 00:00:00+00:00,10000.0
2024-03-13 00:00:00+00:00,10000.0
2024-03-14 00:00:00+00:00,10000.0
2024-03-15 00:00:00+00:00,10000.0
2024-03-18 00:00:00+00:00,10000.0
2024-03-19 00:00:00+00:00,10000.0
2024-03-20 00:00:00+00:00,10000.0
2024-03-21 00:00:00+00:00,10000.0
2024-03-22 00:00:00+00:00,10000.0
2024-03-25 00:00:00+00:00,10000.0
2024-03-26 00:00:00+00:00,10000.0
2024-03-27 00:00:00+00:00,10000.0
2024-03-28 00:00:00+00:00,10000.0
2024-04-01 00:00:00+00:00,10000.0
2024-04-02 00:00:00+00:00,10000.0
2024-04-03 00:00:00+00:00,10000.0
2024-04-04 00:00:00+00:00,10000.0
2024-04-05 00:00:00+00:00,10000.0
2024-04-08 00:00:00+00:00,10000.0
2024-04-09 00:00:00+00:00,10000.0
2024-04-10 00:00:00+00:00,10000.0
2024-04-11 00:00:00+00:00,10000.0
2024-04-12 00:00:00+00:00,10000.0
2024-04-15 00:00:00+00:00,10000.0
2024-04-16 00:00:00+00:00,10000.0
2024-04-17 00:00:00+00:00,10000.0
2024-04-18 00:00:00+00:00,10000.0
2024-04-19 00:00:00+00:00,10000.0
2024-04-22 00:00:00+00:00,10000.0
2024-04-23 00:00:00+00:00,10000.0
2024-04-24 00:00:00+00:00,10000.0
2024-04-25 00:00:00+00:00,10000.0
2024-04-26 00:00:00+00:00,10000.0
2024-04-29 00:00:00+00:00,10000.0
2024-04-30 00:00:00+00:00,10000.0
2024-05-01 00:00:00+00:00,10000.0
2024-05-02 00:00:00+00:00,10000.0
2024-05-03 00:00:00+00:00,10000.0
2024-05-06 00:00:00+00:00,10000.0
2024-05-07 00:00:00+00:00,10000.0
2024-05-08 00:00:00+00:00,10000.0
2024-05-09 00:00:00+00:00,10000.0
2024-05-10 00:00:00+00:00,10000.0
2024-05-13 00:00:00+00:00,10000.0
2024-05-14 00:00:00+00:00,10000.0
2024-05-15 00:00:00+00:00,10000.0
2024-05-16 00:00:00+00:00,10000.0
2024-05-17 00:00:00+00:00,10000.0
2024-05-20 00:00:00+00:00,10000.0
2024-05-21 00:00:00+00:00,10000.0
2024-05-22 00:00:00+00:00,10000.0
2024-05-23 00:00:00+00:00,10000.0
2024-05-24 00:00:00+00:00,10000.0
2024-05-28 00:00:00+00:00,10000.0
2024-05-29 00:00:00+00:00,10000.0
2024-05-30 00:00:00+00:00,10000.0
2024-05-31 00:00:00+00:00,10000.0
2024-06-03 00:00:00+00:00,10000.0
2024-06-04 00:00:00+00:00,10000.0
2024-06-05 00:00:00+00:00,10000.0
2024-06-06 00:00:00+00:00,10000.0
2024-06-07 00:00:00+00:00,10000.0
2024-06-10 00:00:00+00:00,10000.0
2024-06-11 00:00:00+00:00,10000.0
2024-06-12 00:00:00+00:00,10000.0
2024-06-13 00:00:00+00:00,10000.0
2024-06-14 00:00:00+00:00,10000.0
2024-06-17 00:00:00+00:00,10000.0
2024-06-18 00:00:00+00:00,10000.0
2024-06-20 00:00:00+00:00,10000.0
2024-06-21 00:00:00+00:00,10000.0
2024-06-24 00:00:00+00:00,10000.0
2024-06-25 00:00:00+00:00,10000.0
2024-06-26 00:00:00+00:00,10000.0
2024-06-27 00:00:00+00:00,10000.0
2024-06-28 00:00:00+00:00,10000.0
2024-07-01 00:00:00+00:00,10000.0
2024-07-02 00:00:00+00:00,10000.0
2024-07-03 00:00:00+00:00,10000.0
2024-07-05 00:00:00+00:00,10000.0
2024-07-08 00:00:00+00:00,10000.0
2024-07-09 00:00:00+00:00,10000.0
2024-07-10 00:00:00+00:00,10000.0
2024-07-11 00:00:00+00:00,10000.0
2024-07-12 00:00:00+00:00,10000.0
2024-07-15 00:00:00+00:00,10000.0
2024-07-16 00:00:00+00:00,10000.0
2024-07-17 00:00:00+00:00,10000.0
2024-07-18 00:00:00+00:00,10000.0
2024-07-19 00:00:00+00:00,10000.0
2024-07-22 00:00:00+00:00,10000.0
2024-07-23 00:00:00+00:00,10000.0
2024-07-24 00:00:00+00:00,10000.0
2024-07-25 00:00:00+00:00,10000.0
2024-07-26 00:00:00+00:00,10000.0
2024-07-29 00:00:00+00:00,10000.0
2024-07-30 00:00:00+00:00,10000.0
2024-07-31 00:00:00+00:00,10000.0
2024-08-01 00:00:00+00:00,10000.0
2024-08-02 00:00:00+00:00,10000.0
2024-08-05 00:00:00+00:00,10000.0
2024-08-06 00:00:00+00:00,10000.0
2024-08-07 00:00:00+00:00,10000.0
2024-08-08 00:00:00+00:00,10000.0
2024-08-09 00:00:00+00:00,10000.0
2024-08-12 00:00:00+00:00,10000.0
2024-08-13 00:00:00+00:00,10000.0
2024-08-14 00:00:00+00:00,10000.0
2024-08-15 00:00:00+00:00,10000.0
2024-08-16 00:00:00+00:00,10000.0
2024-08-19 00:00:00+00:00,10000.0
2024-08-20 00:00:00+00:00,10000.0
2024-08-21 00:00:00+00:00,10000.0
2024-08-22 00:00:00+00:00,10000.0
2024-08-23 00:00:00+00:00,10000.0
2024-08-26 00:00:00+00:00,10000.0
2024-08-27 00:00:00+00:00,10000.0
2024-08-28 00:00:00+00:00,10000.0
2024-08-29 00:00:00+00:00,10000.0
2024-08-30 00:00:00+00:00,10000.0
2024-09-03 00:00:00+00:00,10000.0
2024-09-04 00:00:00+00:00,10000.0
2024-09-05 00:00:00+00:00,10000.0
2024-09-06 00:00:00+00:00,10000.0
2024-09-09 00:00:00+00:00,10000.0
2024-09-10 00:00:00+00:00,10000.0
2024-09-11 00:00:00+00:00,10000.0
2024-09-12 00:00:00+00:00,10000.0
2024-09-13 00:00:00+00:00,10000.0
2024-09-16 00:00:00+00:00,10000.0
2024-09-17 00:00:00+00:00,10000.0
2024-09-18 00:00:00+00:00,10000.0
2024-09-19 00:00:00+00:00,10000.0
2024-09-20 00:00:00+00:00,10000.0
2024-09-23 00:00:00+00:00,10000.0
2024-09-24 00:00:00+00:00,10000.0
2024-09-25 00:00:00+00:00,10000.0
2024-09-26 00:00:00+00:00,10000.0
2024-09-27 00:00:00+00:00,10000.0
2024-09-30 00:00:00+00:00,10000.0
2024-10-01 00:00:00+00:00,10000.0
2024-10-02 00:00:00+00:00,10000.0
2024-10-03 00:00:00+00:00,10000.0
2024-10-04 00:00:00+00:00,10000.0
2024-10-07 00:00:00+00:00,10000.0
2024-10-08 00:00:00+00:00,10000.0
2024-10-09 00:00:00+00:00,10000.0
2024-10-10 00:00:00+00:00,10000.0
2024-10-11 00:00:00+00:00,10000.0
2024-10-14 00:00:00+00:00,10000.0
2024-10-15 00:00:00+00:00,10000.0
2024-10-16 00:00:00+00:00,10000.0
2024-10-17 00:00:00+00:00,10000.0
2024-10-18 00:00:00+00:00,10000.0
2024-10-21 00:00:00+00:00,10000.0
2024-10-22 00:00:00+00:00,10000.0
2024-10-23 00:00:00+00:00,10000.0
2024-10-24 00:00:00+00:00,10000.0
2024-10-25 00:00:00+00:00,10000.0
2024-10-28 00:00:00+00:00,10000.0
2024-10-29 00:00:00+00:00,10000.0
2024-10-30 00:00:00+00:00,10000.0
2024-10-31 00:00:00+00:00,10000.0
2024-11-01 00:00:00+00:00,10000.0
2024-11-04 00:00:00+00:00,10000.0
2024-11-05 00:00:00+00:00,10000.0
2024-11-06 00:00:00+00:00,10000.0
2024-11-07 00:00:00+00:00,10000.0
2024-11-08 00:00:00+00:00,10000.0
2024-11-11 00:00:00+00:00,10000.0
2024-11-12 00:00:00+00:00,10000.0
2024-11-13 00:00:00+00:00,10000.0
2024-11-14 00:00:00+00:00,10000.0
2024-11-15 00:00:00+00:00,10000.0
2024-11-18 00:00:00+00:00,10000.0
2024-11-19 00:00:00+00:00,10000.0
2024-11-20 00:00:00+00:00,10000.0
2024-11-21 00:00:00+00:00,10000.0
2024-11-22 00:00:00+00:00,10000.0
2024-11-25 00:00:00+00:00,10000.0
2024-11-26 00:00:00+00:00,10000.0
2024-11-27 00:00:00+00:00,10000.0
2024-11-29 00:00:00+00:00,10000.0
2024-12-02 00:00:00+00:00,10000.0
2024-12-03 00:00:00+00:00,10000.0
2024-12-04 00:00:00+00:00,10000.0
2024-12-05 00:00:00+00:00,10000.0
2024-12-06 00:00:00+00:00,10000.0
2024-12-09 00:00:00+00:00,10000.0
2024-12-10 00:00:00+00:00,10000.0
2024-12-11 00:00:00+00:00,10000.0
2024-12-12 00:00:00+00:00,10000.0
2024-12-13 00:00:00+00:00,10000.0
2024-12-16 00:00:00+00:00,10000.0
2024-12-17 00:00:00+00:00,10000.0
2024-12-18 00:00:00+00:00,10000.0
2024-12-19 00:00:00+00:00,10000.0
2024-12-20 00:00:00+00:00,10000.0
2024-12-23 00:00:00+00:00,10000.0
2024-12-24 00:00:00+00:00,10000.0
2024-12-26 00:00:00+00:00,10000.0
2024-12-27 00:00:00+00:00,10000.0
2024-12-30 00:00:00+00:00,10000.0
2024-12-31 00:00:00+00:00,10000.0
2025-01-02 00:00:00+00:00,10000.0
2025-01-03 00:00:00+00:00,10000.0
2025-01-06 00:00:00+00:00,10000.0
2025-01-07 00:00:00+00:00,10000.0
2025-01-08 00:00:00+00:00,10000.0
2025-01-10 00:00:00+00:00,10000.0
2025-01-13 00:00:00+00:00,10000.0
2025-01-14 00:00:00+00:00,10000.0
2025-01-15 00:00:00+00:00,10000.0
2025-01-16 00:00:00+00:00,10000.0
2025-01-17 00:00:00+00:00,10000.0
2025-01-21 00:00:00+00:00,10000.0
2025-01-22 00:00:00+00:00,10000.0
2025-01-23 00:00:00+00:00,10000.0
2025-01-24 00:00:00+00:00,10000.0
2025-01-27 00:00:00+00:00,10000.0
2025-01-28 00:00:00+00:00,10000.0
2025-01-29 00:00:00+00:00,10000.0
2025-01-30 00:00:00+00:00,10000.0
2025-01-31 00:00:00+00:00,10000.0
2025-02-03 00:00:00+00:00,10000.0
2025-02-04 00:00:00+00:00,10000.0
2025-02-05 00:00:00+00:00,10000.0
2025-02-06 00:00:00+00:00,10000.0
2025-02-07 00:00:00+00:00,10000.0
2025-02-10 00:00:00+00:00,10000.0
2025-02-11 00:00:00+00:00,10000.0
2025-02-12 00:00:00+00:00,10000.0
2025-02-13 00:00:00+00:00,10000.0
2025-02-14 00:00:00+00:00,10000.0
2025-02-18 00:00:00+00:00,10000.0
2025-02-19 00:00:00+00:00,10000.0
2025-02-20 00:00:00+00:00,10000.0
2025-02-21 00:00:00+00:00,10000.0
2025-02-24 00:00:00+00:00,10000.0
2025-02-25 00:00:00+00:00,10000.0
2025-02-26 00:00:00+00:00,10000.0
2025-02-27 00:00:00+00:00,10000.0
2025-02-28 00:00:00+00:00,10000.0
2025-03-03 00:00:00+00:00,10000.0
2025-03-04 00:00:00+00:00,10000.0
2025-03-05 00:00:00+00:00,10000.0
2025-03-06 00:00:00+00:00,10000.0
2025-03-07 00:00:00+00:00,10000.0
2025-03-10 00:00:00+00:00,10000.0
2025-03-11 00:00:00+00:00,10000.0
2025-03-12 00:00:00+00:00,10000.0
2025-03-13 00:00:00+00:00,10000.0
2025-03-14 00:00:00+00:00,10000.0
2025-03-17 00:00:00+00:00,10000.0
2025-03-18 00:00:00+00:00,10000.0
2025-03-19 00:00:00+00:00,10000.0
2025-03-20 00:00:00+00:00,10000.0
2025-03-21 00:00:00+00:00,10000.0
2025-03-24 00:00:00+00:00,10000.0
2025-03-25 00:00:00+00:00,10000.0
2025-03-26 00:00:00+00:00,10000.0
2025-03-27 00:00:00+00:00,10000.0
2025-03-28 00:00:00+00:00,10000.0
2025-03-31 00:00:00+00:00,10000.0
2025-04-01 00:00:00+00:00,10000.0
2025-04-02 00:00:00+00:00,10000.0
2025-04-03 00:00:00+00:00,10000.0
2025-04-04 00:00:00+00:00,10000.0
2025-04-07 00:00:00+00:00,10000.0
2025-04-08 00:00:00+00:00,10000.0
2025-04-09 00:00:00+00:00,10000.0
2025-04-10 00:00:00+00:00,10000.0
2025-04-11 00:00:00+00:00,10000.0
2025-04-14 00:00:00+00:00,10000.0
2025-04-15 00:00:00+00:00,10000.0
2025-04-16 00:00:00+00:00,10000.0
2025-04-17 00:00:00+00:00,10000.0
2025-04-21 00:00:00+00:00,10000.0
2025-04-22 00:00:00+00:00,10000.0
2025-04-23 00:00:00+00:00,10000.0
2025-04-24 00:00:00+00:00,10000.0
2025-04-25 00:00:00+00:00,10000.0
2025-04-28 00:00:00+00:00,10000.0
2025-04-29 00:00:00+00:00,10000.0
2025-04-30 00:00:00+00:00,10000.0
2025-05-01 00:00:00+00:00,10000.0
2025-05-02 00:00:00+00:00,10000.0
2025-05-05 00:00:00+00:00,10000.0
2025-05-06 00:00:00+00:00,10000.0
2025-05-07 00:00:00+00:00,10000.0
2025-05-08 00:00:00+00:00,10000.0
2025-05-09 00:00:00+00:00,10000.0
2025-05-12 00:00:00+00:00,10000.0
2025-05-13 00:00:00+00:00,10000.0
2025-05-14 00:00:00+00:00,10000.0
2025-05-15 00:00:00+00:00,9980.03992015968
2025-05-16 00:00:00+00:00,10043.2535889755
2025-05-19 00:00:00+00:00,10054.239108599328
2025-05-20 00:00:00+00:00,10020.434121529694
2025-05-21 00:00:00+00:00,9851.582227779425
2025-05-22 00:00:00+00:00,9855.470944415718
2025-05-23 00:00:00+00:00,9788.198663576582
2025-05-27 00:00:00+00:00,9991.702923857682
2025-05-28 00:00:00+00:00,9933.896542791785
2025-05-29 00:00:00+00:00,9973.10881761134
2025-05-30 00:00:00+00:00,9961.953402600491
2025-06-02 00:00:00+00:00,10018.06921969182
2025-06-03 00:00:00+00:00,10075.197067946585
2025-06-04 00:00:00+00:00,10072.493424071625
2025-06-05 00:00:00+00:00,10023.814200741874
2025-06-06 00:00:00+00:00,10126.749830538318
2025-06-09 00:00:00+00:00,10135.87593953751
2025-06-10 00:00:00+00:00,10193.343578566319
2025-06-11 00:00:00+00:00,10164.27259012026
2025-06-12 00:00:00+00:00,10204.667840227234
2025-06-13 00:00:00+00:00,10090.579941630813
2025-06-16 00:00:00+00:00,10186.583420141957
2025-06-17 00:00:00+00:00,10099.537203979939
2025-06-18 00:00:00+00:00,10098.015486655433
2025-06-20 00:00:00+00:00,10074.301446585367
2025-06-23 00:00:00+00:00,10173.807706532654
2025-06-24 00:00:00+00:00,10286.201894943637
2025-06-25 00:00:00+00:00,10291.964704521957
2025-06-26 00:00:00+00:00,10372.48882554884
2025-06-27 00:00:00+00:00,10424.021662138392
2025-06-30 00:00:00+00:00,10473.8607885425
2025-07-01 00:00:00+00:00,10470.47127069771
2025-07-02 00:00:00+00:00,10517.937105368292
2025-07-03 00:00:00+00:00,10600.834518128704
2025-07-07 00:00:00+00:00,10521.835260637195
2025-07-08 00:00:00+00:00,10516.072451058873
2025-07-09 00:00:00+00:00,10579.133004278981
2025-07-10 00:00:00+00:00,10608.968521966639
2025-07-11 00:00:00+00:00,10571.675435778263
2025-07-14 00:00:00+00:00,10591.847891144784
2025-07-15 00:00:00+00:00,10546.585452820707
2025-07-16 00:00:00+00:00,10581.846086786554
2025-07-17 00:00:00+00:00,10646.602447666019
2025-07-18 00:00:00+00:00,10638.806137128211
2025-07-21 00:00:00+00:00,10658.97859249473
2025-07-22 00:00:00+00:00,10660.503456030105
2025-07-23 00:00:00+00:00,10751.198228065277
2025-07-24 00:00:00+00:00,10754.757641297094
2025-07-25 00:00:00+00:00,10800.187877534278
2025-07-28 00:00:00+00:00,10797.477941237574
2025-07-29 00:00:00+00:00,10768.997391698267
2025-07-30 00:00:00+00:00,10755.436174108227
2025-07-31 00:00:00+00:00,10715.089165901274
2025-08-01 00:00:00+00:00,10574.265284954607
2025-08-04 00:00:00+00:00,10574.265284954607
2025-08-05 00:00:00+00:00,10574.265284954607
2025-08-06 00:00:00+00:00,10574.265284954607
2025-08-07 00:00:00+00:00,10574.265284954607
2025-08-08 00:00:00+00:00,10574.265284954607
2025-08-11 00:00:00+00:00,10574.265284954607
2025-08-12 00:00:00+00:00,10574.265284954607
2025-08-13 00:00:00+00:00,10574.265284954607
2025-08-14 00:00:00+00:00,10574.265284954607
2025-08-15 00:00:00+00:00,10574.265284954607
2025-08-18 00:00:00+00:00,10574.265284954607
2025-08-19 00:00:00+00:00,10574.265284954607
2025-08-20 00:00:00+00:00,10574.265284954607
2025-08-21 00:00:00+00:00,10574.265284954607
2025-08-22 00:00:00+00:00,10574.265284954607
2025-08-25 00:00:00+00:00,10574.265284954607
2025-08-26 00:00:00+00:00,10574.265284954607
2025-08-27 00:00:00+00:00,10574.265284954607
2025-08-28 00:00:00+00:00,10574.265284954607
2025-08-29 00:00:00+00:00,10574.265284954607
2025-09-02 00:00:00+00:00,10574.265284954607
2025-09-03 00:00:00+00:00,10574.265284954607
2025-09-04 00:00:00+00:00,10574.265284954607
2025-09-05 00:00:00+00:00,10574.265284954607
2025-09-08 00:00:00+00:00,10574.265284954607
2025-09-09 00:00:00+00:00,10574.265284954607
2025-09-10 00:00:00+00:00,10574.265284954607
2025-09-11 00:00:00+00:00,10574.265284954607
2025-09-12 00:00:00+00:00,10574.265284954607
2025-09-15 00:00:00+00:00,10574.265284954607
2025-09-16 00:00:00+00:00,10574.265284954607
2025-09-17 00:00:00+00:00,10574.265284954607
2025-09-18 00:00:00+00:00,10574.265284954607
2025-09-19 00:00:00+00:00,10574.265284954607
2025-09-22 00:00:00+00:00,10574.265284954607
2025-09-23 00:00:00+00:00,10574.265284954607
2025-09-24 00:00:00+00:00,10574.265284954607
2025-09-25 00:00:00+00:00,10574.265284954607
2025-09-26 00:00:00+00:00,10574.265284954607
2025-09-29 00:00:00+00:00,10574.265284954607
2025-09-30 00:00:00+00:00,10574.265284954607
2025-10-01 00:00:00+00:00,10574.265284954607
2025-10-02 00:00:00+00:00,10574.265284954607
2025-10-03 00:00:00+00:00,10574.265284954607
2025-10-06 00:00:00+00:00,10574.265284954607
2025-10-07 00:00:00+00:00,10574.265284954607
2025-10-08 00:00:00+00:00,10574.265284954607
2025-10-09 00:00:00+00:00,10574.265284954607
2025-10-10 00:00:00+00:00,10574.265284954607
2025-10-13 00:00:00+00:00,10574.265284954607
2025-10-14 00:00:00+00:00,10574.265284954607
2025-10-15 00:00:00+00:00,10574.265284954607
2025-10-16 00:00:00+00:00,10574.265284954607
2025-10-17 00:00:00+00:00,10574.265284954607
2025-10-20 00:00:00+00:00,10574.265284954607
2025-10-21 00:00:00+00:00,10574.265284954607
2025-10-22 00:00:00+00:00,10574.265284954607
2025-10-23 00:00:00+00:00,10574.265284954607
2025-10-24 00:00:00+00:00,10574.265284954607
2025-10-27 00:00:00+00:00,10574.265284954607
2025-10-28 00:00:00+00:00,10574.265284954607
2025-10-29 00:00:00+00:00,10574.265284954607
2025-10-30 00:00:00+00:00,10574.265284954607
2025-10-31 00:00:00+00:00,10574.265284954607
2025-11-03 00:00:00+00:00,10574.265284954607
2025-11-04 00:00:00+00:00,10574.265284954607
2025-11-05 00:00:00+00:00,10574.265284954607
2025-11-06 00:00:00+00:00,10574.265284954607
2025-11-07 00:00:00+00:00,10574.265284954607
2025-11-10 00:00:00+00:00,10574.265284954607
2025-11-11 00:00:00+00:00,10574.265284954607
2025-11-12 00:00:00+00:00,10574.265284954607
2025-11-13 00:00:00+00:00,10574.265284954607
2025-11-14 00:00:00+00:00,10574.265284954607
2025-11-17 00:00:00+00:00,10574.265284954607
2025-11-18 00:00:00+00:00,10574.265284954607
2025-11-19 00:00:00+00:00,10574.265284954607
2025-11-20 00:00:00+00:00,10574.265284954607
2025-11-21 00:00:00+00:00,10574.265284954607
2025-11-24 00:00:00+00:00,10574.265284954607
2025-11-25 00:00:00+00:00,10574.265284954607
2025-11-26 00:00:00+00:00,10574.265284954607
2025-11-28 00:00:00+00:00,10574.265284954607
2025-12-01 00:00:00+00:00,10574.265284954607
2025-12-02 00:00:00+00:00,10574.265284954607
2025-12-03 00:00:00+00:00,10574.265284954607
2025-12-04 00:00:00+00:00,10574.265284954607
2025-12-05 00:00:00+00:00,10574.265284954607
2025-12-08 00:00:00+00:00,10574.265284954607
2025-12-09 00:00:00+00:00,10574.265284954607
2025-12-10 00:00:00+00:00,10574.265284954607
2025-12-11 00:00:00+00:00,10574.265284954607
2025-12-12 00:00:00+00:00,10574.265284954607
2025-12-15 00:00:00+00:00,10574.265284954607
2025-12-16 00:00:00+00:00,10574.265284954607
2025-12-17 00:00:00+00:00,10574.265284954607
2025-12-18 00:00:00+00:00,10574.265284954607
2025-12-19 00:00:00+00:00,10574.265284954607
2025-12-22 00:00:00+00:00,10574.265284954607
2025-12-23 00:00:00+00:00,10574.265284954607
2025-12-24 00:00:00+00:00,10574.265284954607
2025-12-26 00:00:00+00:00,10574.265284954607
2025-12-29 00:00:00+00:00,10574.265284954607
2025-12-30 00:00:00+00:00,10574.265284954607
2025-12-31 00:00:00+00:00,10574.265284954607
2026-01-02 00:00:00+00:00,10574.265284954607
2026-01-05 00:00:00+00:00,10574.265284954607
2026-01-06 00:00:00+00:00,10574.265284954607
2026-01-07 00:00:00+00:00,10574.265284954607
2026-01-08 00:00:00+00:00,10574.265284954607
2026-01-09 00:00:00+00:00,10574.265284954607
2026-01-12 00:00:00+00:00,10574.265284954607
2026-01-13 00:00:00+00:00,10574.265284954607
2026-01-14 00:00:00+00:00,10574.265284954607
2026-01-15 00:00:00+00:00,10574.265284954607
2026-01-16 00:00:00+00:00,10574.265284954607
2026-01-20 00:00:00+00:00,10574.265284954607
2026-01-21 00:00:00+00:00,10574.265284954607
2026-01-22 00:00:00+00:00,10574.265284954607
2026-01-23 00:00:00+00:00,10574.265284954607
2026-01-26 00:00:00+00:00,10574.265284954607
2026-01-27 00:00:00+00:00,10574.265284954607
2026-01-28 00:00:00+00:00,10574.265284954607
2026-01-29 00:00:00+00:00,10574.265284954607
2026-01-30 00:00:00+00:00,10574.265284954607
2026-02-02 00:00:00+00:00,10574.265284954607
2026-02-03 00:00:00+00:00,10574.265284954607
2026-02-04 00:00:00+00:00,10574.265284954607
2026-02-05 00:00:00+00:00,10574.265284954607
2026-02-06 00:00:00+00:00,10574.265284954607
2026-02-09 00:00:00+00:00,10574.265284954607
2026-02-10 00:00:00+00:00,10574.265284954607
2026-02-11 00:00:00+00:00,10574.265284954607
2026-02-12 00:00:00+00:00,10574.265284954607
2026-02-13 00:00:00+00:00,10574.265284954607
2026-02-17 00:00:00+00:00,10574.265284954607
2026-02-18 00:00:00+00:00,10574.265284954607
2026-02-19 00:00:00+00:00,10574.265284954607
2026-02-20 00:00:00+00:00,10574.265284954607
2026-02-23 00:00:00+00:00,10574.265284954607
2026-02-24 00:00:00+00:00,10574.265284954607
2026-02-25 00:00:00+00:00,10574.265284954607
2026-02-26 00:00:00+00:00,10574.265284954607
2026-02-27 00:00:00+00:00,10574.265284954607
2026-03-02 00:00:00+00:00,10574.265284954607
2026-03-03 00:00:00+00:00,10574.265284954607
2026-03-04 00:00:00+00:00,10574.265284954607
2026-03-05 00:00:00+00:00,10574.265284954607
2026-03-06 00:00:00+00:00,10574.265284954607
2026-03-09 00:00:00+00:00,10574.265284954607
2026-03-10 00:00:00+00:00,10574.265284954607
2026-03-11 00:00:00+00:00,10574.265284954607
2026-03-12 00:00:00+00:00,10574.265284954607
2026-03-13 00:00:00+00:00,10574.265284954607
2026-03-16 00:00:00+00:00,10574.265284954607
2026-03-17 00:00:00+00:00,10574.265284954607
2026-03-18 00:00:00+00:00,10574.265284954607
2026-03-19 00:00:00+00:00,10574.265284954607
2026-03-20 00:00:00+00:00,10574.265284954607
2026-03-23 00:00:00+00:00,10574.265284954607
2026-03-24 00:00:00+00:00,10574.265284954607
2026-03-25 00:00:00+00:00,10574.265284954607
2026-03-26 00:00:00+00:00,10574.265284954607
2026-03-27 00:00:00+00:00,10574.265284954607
2026-03-30 00:00:00+00:00,10574.265284954607
2026-03-31 00:00:00+00:00,10574.265284954607
2026-04-01 00:00:00+00:00,10574.265284954607
2026-04-02 00:00:00+00:00,10574.265284954607
2026-04-06 00:00:00+00:00,10574.265284954607
2026-04-07 00:00:00+00:00,10574.265284954607
2026-04-08 00:00:00+00:00,10574.265284954607
2026-04-09 00:00:00+00:00,10574.265284954607
2026-04-10 00:00:00+00:00,10574.265284954607
2026-04-13 00:00:00+00:00,10574.265284954607
2026-04-14 00:00:00+00:00,10574.265284954607
2026-04-15 00:00:00+00:00,10574.265284954607
2026-04-16 00:00:00+00:00,10574.265284954607
2026-04-17 00:00:00+00:00,10574.265284954607
2026-04-20 00:00:00+00:00,10574.265284954607
2026-04-21 00:00:00+00:00,10574.265284954607
2026-04-22 00:00:00+00:00,10574.265284954607
2026-04-23 00:00:00+00:00,10574.265284954607
2026-04-24 00:00:00+00:00,10574.265284954607
2026-04-27 00:00:00+00:00,10574.265284954607
2026-04-28 00:00:00+00:00,10574.265284954607
2026-04-29 00:00:00+00:00,10574.265284954607
2026-04-30 00:00:00+00:00,10574.265284954607
2026-05-01 00:00:00+00:00,10574.265284954607
2026-05-04 00:00:00+00:00,10574.265284954607
2026-05-05 00:00:00+00:00,10574.265284954607
2026-05-06 00:00:00+00:00,10574.265284954607
2026-05-07 00:00:00+00:00,10574.265284954607
2026-05-08 00:00:00+00:00,10574.265284954607
2026-05-11 00:00:00+00:00,10574.265284954607
2026-05-12 00:00:00+00:00,10574.265284954607
2026-05-13 00:00:00+00:00,10574.265284954607
2026-05-14 00:00:00+00:00,10574.265284954607
2026-05-15 00:00:00+00:00,10574.265284954607
2026-05-18 00:00:00+00:00,10574.265284954607
2026-05-19 00:00:00+00:00,10574.265284954607
2026-05-20 00:00:00+00:00,10574.265284954607
2026-05-21 00:00:00+00:00,10574.265284954607
2026-05-22 00:00:00+00:00,10574.265284954607
2026-05-26 00:00:00+00:00,10574.265284954607
2026-05-27 00:00:00+00:00,10574.265284954607
2026-05-28 00:00:00+00:00,10574.265284954607
2026-05-29 00:00:00+00:00,10574.265284954607
2026-06-01 00:00:00+00:00,10574.265284954607
2026-06-02 00:00:00+00:00,10574.265284954607
2026-06-03 00:00:00+00:00,10574.265284954607
2026-06-04 00:00:00+00:00,10574.265284954607
2026-06-05 00:00:00+00:00,10574.265284954607
2026-06-08 00:00:00+00:00,10574.265284954607
2026-06-09 00:00:00+00:00,10574.265284954607
2026-06-10 00:00:00+00:00,10574.265284954607
2026-06-11 00:00:00+00:00,10574.265284954607
2026-06-12 00:00:00+00:00,10574.265284954607
2026-06-15 00:00:00+00:00,10574.265284954607
2026-06-16 00:00:00+00:00,10574.265284954607
2026-06-17 00:00:00+00:00,10574.265284954607
2026-06-18 00:00:00+00:00,10574.265284954607
2026-06-22 00:00:00+00:00,10574.265284954607
2026-06-23 00:00:00+00:00,10574.265284954607
2026-06-24 00:00:00+00:00,10574.265284954607
2026-06-25 00:00:00+00:00,10574.265284954607
2026-06-26 00:00:00+00:00,10574.265284954607
2026-06-29 00:00:00+00:00,10574.265284954607
2026-06-30 00:00:00+00:00,10574.265284954607
2026-07-01 00:00:00+00:00,10574.265284954607
2026-07-02 00:00:00+00:00,10574.265284954607
2026-07-06 00:00:00+00:00,10574.265284954607
2026-07-07 00:00:00+00:00,10574.265284954607
2026-07-08 00:00:00+00:00,10574.265284954607
2026-07-09 00:00:00+00:00,10574.265284954607
2026-07-10 00:00:00+00:00,10574.265284954607
2026-07-13 00:00:00+00:00,10574.265284954607
2026-07-14 00:00:00+00:00,10574.265284954607
2026-07-15 00:00:00+00:00,10574.265284954607
2026-07-16 00:00:00+00:00,10574.265284954607
2026-07-17 00:00:00+00:00,10574.265284954607
2026-07-20 00:00:00+00:00,10574.265284954607
2026-07-21 00:00:00+00:00,10574.265284954607
2026-07-22 00:00:00+00:00,10574.265284954607
2026-07-23 00:00:00+00:00,10574.265284954607
2026-07-24 00:00:00+00:00,10574.265284954607
2026-07-27 00:00:00+00:00,10574.265284954607
2026-07-28 00:00:00+00:00,10574.265284954607
2026-07-29 00:00:00+00:00,10574.265284954607
2026-07-30 00:00:00+00:00,10574.265284954607
2026-07-31 00:00:00+00:00,10574.265284954607
2026-08-03 00:00:00+00:00,10574.265284954607
2026-08-04 00:00:00+00:00,10574.265284954607
2026-08-05 00:00:00+00:00,10574.265284954607
2026-08-06 00:00:00+00:00,10574.265284954607
2026-08-07 00:00:00+00:00,10574.265284954607
2026-08-10 00:00:00+00:00,10574.265284954607
2026-08-11 00:00:00+00:00,10574.265284954607
2026-08-12 00:00:00+00:00,10574.265284954607
2026-08-13 00:00:00+00:00,10574.265284954607
2026-08-14 00:00:00+00:00,10574.265284954607
2026-08-17 00:00:00+00:00,10574.265284954607
2026-08-18 00:00:00+00:00,10574.265284954607
2026-08-19 00:00:00+00:00,10574.265284954607
2026-08-20 00:00:00+00:00,10574.265284954607
2026-08-21 00:00:00+00:00,10574.265284954607
2026-08-24 00:00:00+00:00,10574.265284954607
2026-08-25 00:00:00+00:00,10574.265284954607
2026-08-26 00:00:00+00:00,10574.265284954607
2026-08-27 00:00:00+00:00,10574.265284954607
2026-08-28 00:00:00+00:00,10574.265284954607
2026-08-31 00:00:00+00:00,10574.265284954607
2026-09-01 00:00:00+00:00,10574.265284954607
2026-09-02 00:00:00+00:00,10574.265284954607
2026-09-03 00:00:00+00:00,10574.265284954607
2026-09-04 00:00:00+00:00,10574.265284954607
2026-09-08 00:00:00+00:00,10574.265284954607
2026-09-09 00:00:00+00:00,10574.265284954607
2026-09-10 00:00:00+00:00,10574.265284954607
2026-09-11 00:00:00+00:00,10574.265284954607
2026-09-14 00:00:00+00:00,10574.265284954607
2026-09-15 00:00:00+00:00,10574.265284954607
2026-09-16 00:00:00+00:00,10574.265284954607
2026-09-17 00:00:00+00:00,10574.265284954607
2026-09-18 00:00:00+00:00,10574.265284954607
2026-09-21 00:00:00+00:00,10574.265284954607
2026-09-22 00:00:00+00:00,10574.265284954607
2026-09-23 00:00:00+00:00,10574.265284954607
